*Energy (MeV/u)1	0 - [He-base] F.Hubert et al, AD&ND Tables 46(1990)1	Energy (MeV/u)2	1 - [H -base] J.F.Ziegler et al, Pergamon Press, NY (low energy)	Energy (MeV/u)3	2 - ATIMA 1.2  LS-theory (recommended for high energy)	Energy (MeV/u)4	3 - ATIMA 1.2  without LS-correction	Energy (MeV/u)5	4 - Range straggling - method [0] - LISE	Energy (MeV/u)6	5 - Range straggling - method [1] - Atima	Energy (MeV/u)7	6 - Lateral range - method [0] - LISE	Energy (MeV/u)8	7 - Lateral range - method [1] - Atima	Energy (MeV/u)9	8 - Lateral range - method [2] - PDG	
0.001000	0.0907169 	0.001000	0.0907169 	0.001000	0.104093  	0.001000	0.104093  	0.001000	0         	0.001000	0         	0.001000	0.000529813	0.001000	0.000798838	0.001000	0.000468879
0.002000	0.192591  	0.002000	0.181434  	0.002000	0.208186  	0.002000	0.208186  	0.002000	0.0183313 	0.002000	0.0183313 	0.002000	0.00155192	0.002000	0.00226104	0.002000	0.00140773
0.005000	0.414468  	0.005000	0.379012  	0.005000	0.432471  	0.005000	0.432471  	0.005000	0.0206433 	0.005000	0.0206433 	0.005000	0.00453566	0.005000	0.00646372	0.005000	0.00417403
0.008000	0.585469  	0.008000	0.531285  	0.008000	0.603355  	0.008000	0.603355  	0.008000	0.0207006 	0.008000	0.0207006 	0.008000	0.00734399	0.008000	0.0103405 	0.008000	0.00680824
0.010000	0.684729  	0.010000	0.619674  	0.010000	0.701851  	0.010000	0.701851  	0.010000	0.0208819 	0.010000	0.0208819 	0.010000	0.00917092	0.010000	0.0128413 	0.010000	0.00852986
0.015000	0.901256  	0.015000	0.812488  	0.015000	0.915129  	0.015000	0.915129  	0.015000	0.0217211 	0.015000	0.0217211 	0.015000	0.0136561 	0.015000	0.0187176 	0.015000	0.0127725
0.020000	1.08809   	0.020000	0.978864  	0.020000	1.09761   	0.020000	1.09761   	0.020000	0.0227741 	0.020000	0.0227741 	0.020000	0.0180572 	0.020000	0.0239263 	0.020000	0.0169506
0.025000	1.25506   	0.025000	1.12754   	0.025000	1.25964   	0.025000	1.25964   	0.025000	0.0238376 	0.025000	0.0238376 	0.025000	0.0224141 	0.025000	0.0286552 	0.025000	0.021097
0.030000	1.40696   	0.030000	1.26281   	0.030000	1.39943   	0.030000	1.39943   	0.030000	0.0247031 	0.030000	0.0247031 	0.030000	0.026538  	0.030000	0.0328197 	0.030000	0.0250211
0.035000	1.54638   	0.035000	1.38696   	0.035000	1.52139   	0.035000	1.52139   	0.035000	0.0253857 	0.035000	0.0253857 	0.035000	0.0303124 	0.035000	0.0365139 	0.035000	0.0287317
0.040000	1.67535   	0.040000	1.50181   	0.040000	1.63359   	0.040000	1.63359   	0.040000	0.0259933 	0.040000	0.0259933 	0.040000	0.0337629 	0.040000	0.0399416 	0.040000	0.0323964
0.045000	1.79591   	0.045000	1.60917   	0.045000	1.73926   	0.045000	1.73926   	0.045000	0.026558  	0.045000	0.026558  	0.045000	0.0370982 	0.045000	0.0432059 	0.045000	0.0357564
0.050000	1.90962   	0.050000	1.71042   	0.050000	1.83984   	0.050000	1.83984   	0.050000	0.0270899 	0.050000	0.0269835 	0.050000	0.0403324 	0.050000	0.0463407 	0.050000	0.0390055
0.055000	2.01768   	0.055000	1.80665   	0.055000	1.93619   	0.055000	1.93619   	0.055000	0.0275929 	0.055000	0.0273232 	0.055000	0.0434908 	0.055000	0.0493923 	0.055000	0.0421858
0.060000	2.12118   	0.060000	1.89881   	0.060000	2.02888   	0.060000	2.02888   	0.060000	0.0280699 	0.060000	0.0276431 	0.060000	0.046581  	0.060000	0.0523568 	0.060000	0.0453044
0.070000	2.31755   	0.070000	2.07367   	0.070000	2.20513   	0.070000	2.20513   	0.070000	0.0289569 	0.070000	0.0282346 	0.070000	0.0525896 	0.070000	0.0581429 	0.070000	0.0513776
0.080000	2.50287   	0.080000	2.2387    	0.080000	2.37163   	0.080000	2.37163   	0.080000	0.0297712 	0.080000	0.0287763 	0.080000	0.0584205 	0.080000	0.0638121 	0.080000	0.0572768
0.090000	2.67991   	0.090000	2.39635   	0.090000	2.53059   	0.090000	2.53059   	0.090000	0.0305305 	0.090000	0.0292817 	0.090000	0.0636773 	0.090000	0.0689813 	0.090000	0.0625936
0.100000	2.8506    	0.100000	2.54834   	0.100000	2.68369   	0.100000	2.68369   	0.100000	0.0312486 	0.100000	0.029761  	0.100000	0.0681875 	0.100000	0.0734446 	0.100000	0.0671485
0.120000	3.1784    	0.120000	2.84025   	0.120000	2.97715   	0.120000	2.97715   	0.120000	0.0326017 	0.120000	0.0306693 	0.120000	0.0761389 	0.120000	0.0814196 	0.120000	0.0751562
0.140000	3.49423   	0.140000	3.12149   	0.140000	3.2592    	0.140000	3.2592    	0.140000	0.03389   	0.140000	0.0315419 	0.140000	0.0831439 	0.140000	0.0885774 	0.140000	0.0821894
0.160000	3.8029    	0.160000	3.39636   	0.160000	3.53426   	0.160000	3.53426   	0.160000	0.0351493 	0.160000	0.0324026 	0.160000	0.0894897 	0.160000	0.0951272 	0.160000	0.0885473
0.180000	4.1057    	0.180000	3.66599   	0.180000	3.80519   	0.180000	3.80519   	0.180000	0.0364015 	0.180000	0.0332661 	0.180000	0.0952953 	0.180000	0.10117   	0.180000	0.0943685
0.200000	4.40332   	0.200000	3.93102   	0.200000	4.07389   	0.200000	4.07389   	0.200000	0.0376604 	0.200000	0.0341411 	0.200000	0.100593  	0.200000	0.106744  	0.200000	0.0996592
0.250000	5.13549   	0.250000	4.583     	0.250000	4.74313   	0.250000	4.74313   	0.250000	0.0408837 	0.250000	0.0364094 	0.250000	0.113592  	0.250000	0.120427  	0.250000	0.112666
0.300000	5.86036   	0.300000	5.22849   	0.300000	5.41618   	0.300000	5.41618   	0.300000	0.0442501 	0.300000	0.0388126 	0.300000	0.125872  	0.300000	0.133374  	0.300000	0.124939
0.350000	6.57904   	0.350000	5.86846   	0.350000	6.09626   	0.350000	6.09626   	0.350000	0.0477479 	0.350000	0.0413362 	0.350000	0.13713   	0.350000	0.145302  	0.350000	0.136197
0.400000	7.29518   	0.400000	6.50617   	0.400000	6.78053   	0.400000	6.78053   	0.400000	0.0512961 	0.400000	0.0439157 	0.400000	0.14813   	0.400000	0.156886  	0.400000	0.147195
0.450000	8.00613   	0.450000	7.13926   	0.450000	7.47104   	0.450000	7.47104   	0.450000	0.0549037 	0.450000	0.0465516 	0.450000	0.158618  	0.450000	0.167935  	0.450000	0.157677
0.500000	8.7165    	0.500000	7.77184   	0.500000	8.16955   	0.500000	8.16955   	0.500000	0.0585815 	0.500000	0.0492471 	0.500000	0.168797  	0.500000	0.178643  	0.500000	0.167859
0.600000	10.1515   	0.600000	9.04969   	0.600000	9.59728   	0.600000	9.59728   	0.600000	0.0662063 	0.600000	0.0548463 	0.600000	0.188056  	0.600000	0.198907  	0.600000	0.187125
0.700000	11.621    	0.700000	10.3583   	0.700000	11.07     	0.700000	11.07     	0.700000	0.0741987 	0.700000	0.0607123 	0.700000	0.206286  	0.700000	0.218086  	0.700000	0.205371
0.800000	13.1413   	0.800000	11.712    	0.800000	12.5891   	0.800000	12.5891   	0.800000	0.0825382 	0.800000	0.0668148 	0.800000	0.223802  	0.800000	0.236496  	0.800000	0.222909
0.900000	14.7223   	0.900000	13.1199   	0.900000	14.1553   	0.900000	14.1553   	0.900000	0.0912137 	0.900000	0.0731345 	0.900000	0.240616  	0.900000	0.254188  	0.900000	0.23975
1.000000	16.3658   	1.000000	14.5834   	1.000000	15.7695   	1.000000	15.7695   	1.000000	0.10022   	1.000000	0.0796596 	1.000000	0.257032  	1.000000	0.271438  	1.000000	0.2562
1.250000	20.7701   	1.250000	18.5054   	1.250000	20.0277   	1.250000	20.0277   	1.250000	0.12434   	1.250000	0.0969426 	1.250000	0.295672  	1.250000	0.312162  	1.250000	0.294954
1.500000	25.6144   	1.500000	22.8192   	1.500000	24.6145   	1.500000	24.6145   	1.500000	0.150834  	1.500000	0.115617  	1.500000	0.331696  	1.500000	0.350279  	1.500000	0.331133
1.750000	30.8803   	1.750000	27.5084   	1.750000	29.5234   	1.750000	29.5234   	1.750000	0.179548  	1.750000	0.135532  	1.750000	0.367036  	1.750000	0.38765   	1.750000	0.366675
2.000000	36.5722   	2.000000	32.5769   	2.000000	34.7531   	2.000000	34.7531   	2.000000	0.210462  	2.000000	0.156657  	2.000000	0.402495  	2.000000	0.425073  	2.000000	0.402388
2.250000	42.7284   	2.250000	38.0588   	2.250000	40.3041   	2.250000	40.3041   	2.250000	0.243598  	2.250000	0.178991  	2.250000	0.438485  	2.250000	0.462932  	2.250000	0.438681
2.500000	49.3069   	2.500000	43.9222   	2.500000	46.1768   	2.500000	46.1768   	2.500000	0.278978  	2.500000	0.202531  	2.500000	0.475253  	2.500000	0.501472  	2.500000	0.475807
3.000000	62.2938   	3.000000	56.7022   	3.000000	58.8853   	3.000000	58.8853   	3.000000	0.356515  	3.000000	0.253195  	3.000000	0.551884  	3.000000	0.58127   	3.000000	0.553309
3.500000	76.5021   	3.500000	70.8013   	3.500000	72.87     	3.500000	72.87     	3.500000	0.443069  	3.500000	0.308593  	3.500000	0.633556  	3.500000	0.665526  	3.500000	0.636073
4.000000	91.9137   	4.000000	86.1593   	4.000000	88.1157   	4.000000	88.1157   	4.000000	0.538535  	4.000000	0.368623  	4.000000	0.721027  	4.000000	0.754861  	4.000000	0.724844
4.500000	108.51    	4.500000	102.736   	4.500000	104.603   	4.500000	104.603   	4.500000	0.642727  	4.500000	0.433102  	4.500000	0.814737  	4.500000	0.849656  	4.500000	0.820049
5.000000	126.271   	5.000000	120.501   	5.000000	122.308   	5.000000	122.308   	5.000000	0.755426  	5.000000	0.501848  	5.000000	0.914878  	5.000000	0.950051  	5.000000	0.921871
5.500000	145.179   	5.500000	139.426   	5.500000	141.211   	5.500000	141.211   	5.500000	0.876406  	5.500000	0.574703  	5.500000	1.02155   	5.500000	1.05612   	5.500000	1.0304
6.000000	165.217   	6.000000	159.487   	6.000000	161.287   	6.000000	161.287   	6.000000	1.00545   	6.000000	0.651522  	6.000000	1.13471   	6.000000	1.16782   	6.000000	1.1456
6.500000	186.368   	6.500000	180.662   	6.500000	182.516   	6.500000	182.516   	6.500000	1.14235   	6.500000	0.732165  	6.500000	1.25437   	6.500000	1.28514   	6.500000	1.26746
7.000000	208.617   	7.000000	202.93    	7.000000	204.877   	7.000000	204.877   	7.000000	1.28692   	7.000000	0.816506  	7.000000	1.38039   	7.000000	1.40789   	7.000000	1.39584
7.500000	231.95    	7.500000	226.272   	7.500000	228.352   	7.500000	228.352   	7.500000	1.43899   	7.500000	0.904433  	7.500000	1.51268   	7.500000	1.53602   	7.500000	1.53065
8.000000	256.352   	8.000000	250.67    	8.000000	252.921   	8.000000	252.921   	8.000000	1.5984    	8.000000	0.995851  	8.000000	1.65114   	8.000000	1.66937   	8.000000	1.67177
8.500000	281.812   	8.500000	276.107   	8.500000	278.57    	8.500000	278.57    	8.500000	1.765     	8.500000	1.09068   	8.500000	1.79564   	8.500000	1.80784   	8.500000	1.81909
9.000000	308.315   	9.000000	302.568   	9.000000	305.282   	9.000000	305.282   	9.000000	1.93867   	9.000000	1.18883   	9.000000	1.94609   	9.000000	1.95134   	9.000000	1.97249
9.500000	335.852   	9.500000	330.039   	9.500000	333.042   	9.500000	333.042   	9.500000	2.11928   	9.500000	1.29021   	9.500000	2.10237   	9.500000	2.09972   	9.500000	2.13187
10.000000	364.411   	10.000000	358.499   	10.000000	361.838   	10.000000	361.838   	10.000000	2.30673   	10.000000	1.39474   	10.000000	2.26436   	10.000000	2.25289   	10.000000	2.2971
11.000000	424.552   	11.000000	417.769   	11.000000	422.389   	11.000000	422.374   	11.000000	2.7       	11.000000	1.61309   	11.000000	2.59482   	11.000000	2.57254   	11.000000	2.63537
12.000000	488.661   	12.000000	480.513   	12.000000	486.749   	12.000000	486.691   	12.000000	3.11632   	12.000000	1.84583   	12.000000	2.94477   	12.000000	2.9089    	12.000000	2.99294
13.000000	556.666   	13.000000	546.735   	13.000000	554.833   	13.000000	554.711   	13.000000	3.55541   	13.000000	2.09248   	13.000000	3.31597   	13.000000	3.2562    	13.000000	3.37221
14.000000	628.5     	14.000000	616.43    	14.000000	626.567   	14.000000	626.362   	14.000000	4.01692   	14.000000	2.35182   	14.000000	3.70734   	14.000000	3.61394   	14.000000	3.77212
15.000000	704.103   	15.000000	689.585   	15.000000	701.884   	15.000000	701.579   	15.000000	4.50054   	15.000000	2.62313   	15.000000	4.11803   	15.000000	3.98786   	15.000000	4.19181
16.000000	783.415   	16.000000	766.184   	16.000000	780.72    	16.000000	780.303   	16.000000	5.00593   	16.000000	2.90582   	16.000000	4.54733   	16.000000	4.37723   	16.000000	4.63058
17.000000	866.385   	17.000000	846.206   	17.000000	863.016   	17.000000	862.478   	17.000000	5.53273   	17.000000	3.19921   	17.000000	4.99471   	17.000000	4.78148   	17.000000	5.08791
18.000000	952.961   	18.000000	929.631   	18.000000	948.719   	18.000000	948.053   	18.000000	6.0806    	18.000000	3.50284   	18.000000	5.4597    	18.000000	5.20014   	18.000000	5.56334
19.000000	1043.1    	19.000000	1016.44   	19.000000	1037.78   	19.000000	1036.98   	19.000000	6.64925   	19.000000	3.81639   	19.000000	5.94192   	19.000000	5.6328    	19.000000	6.05648
20.000000	1136.74   	20.000000	1106.6    	20.000000	1130.15   	20.000000	1129.21   	20.000000	7.23844   	20.000000	4.13961   	20.000000	6.44103   	20.000000	6.07912   	20.000000	6.56701
21.000000	1233.86   	21.000000	1200.09   	21.000000	1225.8    	21.000000	1224.71   	21.000000	7.84796   	21.000000	4.47228   	21.000000	6.95674   	21.000000	6.53882   	21.000000	7.09464
22.000000	1334.41   	22.000000	1296.9    	22.000000	1324.68   	22.000000	1323.45   	22.000000	8.47762   	22.000000	4.81421   	22.000000	7.48882   	22.000000	7.01166   	22.000000	7.63916
23.000000	1438.35   	23.000000	1396.99   	23.000000	1426.76   	23.000000	1425.37   	23.000000	9.12694   	23.000000	5.16508   	23.000000	8.03694   	23.000000	7.49733   	23.000000	8.20022
24.000000	1545.65   	24.000000	1500.35   	24.000000	1531.97   	24.000000	1530.45   	24.000000	9.79554   	24.000000	5.52464   	24.000000	8.60077   	24.000000	7.99553   	24.000000	8.77752
25.000000	1656.26   	25.000000	1606.95   	25.000000	1640.3    	25.000000	1638.64   	25.000000	10.4832   	25.000000	5.89276   	25.000000	9.18013   	25.000000	8.50607   	25.000000	9.37087
27.000000	1887.3    	27.000000	1829.77   	27.000000	1866.15   	27.000000	1864.23   	27.000000	11.9149   	27.000000	6.65407   	27.000000	10.3845   	27.000000	9.56335   	27.000000	10.6048
29.000000	2131.23   	29.000000	2065.28   	29.000000	2104.03   	29.000000	2101.89   	29.000000	13.4199   	29.000000	7.44775   	29.000000	11.6482   	29.000000	10.6675   	29.000000	11.9004
31.000000	2387.8    	31.000000	2313.31   	31.000000	2353.78   	31.000000	2351.46   	31.000000	14.9979   	31.000000	8.27358   	31.000000	12.9704   	31.000000	11.8177   	31.000000	13.2566
33.000000	2656.78   	33.000000	2573.69   	33.000000	2615.74   	33.000000	2613.33   	33.000000	16.6572   	33.000000	9.13538   	33.000000	14.3541   	33.000000	13.0164   	33.000000	14.6768
35.000000	2937.97   	35.000000	2846.25   	35.000000	2889.83   	35.000000	2887.38   	35.000000	18.3976   	35.000000	10.0331   	35.000000	15.7993   	35.000000	14.2634   	35.000000	16.1611
38.000000	3382.2    	38.000000	3277.59   	38.000000	3323.31   	38.000000	3320.9    	38.000000	21.1555   	38.000000	11.445    	38.000000	18.0811   	38.000000	16.2234   	38.000000	18.5064
41.000000	3852.83   	41.000000	3735.47   	41.000000	3783.04   	41.000000	3780.83   	41.000000	24.0834   	41.000000	12.9312   	41.000000	20.4967   	41.000000	18.2883   	41.000000	20.9915
44.000000	4349.28   	44.000000	4219.39   	44.000000	4268.55   	44.000000	4266.63   	44.000000	27.177    	44.000000	14.4903   	44.000000	23.0433   	44.000000	20.4557   	44.000000	23.6141
47.000000	4871      	47.000000	4728.89   	47.000000	4779.31   	47.000000	4777.81   	47.000000	30.4311   	47.000000	16.1185   	47.000000	25.7181   	47.000000	22.7232   	47.000000	26.3715
50.000000	5417.49   	50.000000	5263.52   	50.000000	5314.87   	50.000000	5313.88   	50.000000	33.8411   	50.000000	17.814    	50.000000	28.518    	50.000000	25.0884   	50.000000	29.2609
55.000000	6382.09   	55.000000	6209.24   	55.000000	6261.29   	55.000000	6261.44   	55.000000	39.8585   	55.000000	20.7834   	55.000000	33.4545   	55.000000	29.2406   	55.000000	34.3623
60.000000	7412.17   	60.000000	7221.64   	60.000000	7273.24   	60.000000	7275.01   	60.000000	46.2769   	60.000000	23.9252   	60.000000	38.7165   	60.000000	33.6462   	60.000000	39.8103
65.000000	8505.87   	65.000000	8298.93   	65.000000	8349.26   	65.000000	8352.79   	65.000000	53.0862   	65.000000	27.2329   	65.000000	44.2947   	65.000000	38.2976   	65.000000	45.5964
70.000000	9661.48   	70.000000	9439.42   	70.000000	9487.55   	70.000000	9493.14   	70.000000	60.2686   	70.000000	30.7005   	70.000000	50.177    	70.000000	43.1853   	70.000000	51.7096
75.000000	10877.4   	75.000000	10641.5   	75.000000	10686.5   	75.000000	10694.5   	75.000000	67.8098   	75.000000	34.3207   	75.000000	56.3527   	75.000000	48.3012   	75.000000	58.1402
80.000000	12152.2   	80.000000	11903.6   	80.000000	11944.7   	80.000000	11955.4   	80.000000	75.6968   	80.000000	38.09     	80.000000	62.812    	80.000000	53.6378   	80.000000	64.8794
85.000000	13484.5   	85.000000	13224.4   	85.000000	13260.7   	85.000000	13274.5   	85.000000	83.9171   	85.000000	42.0005   	85.000000	69.5455   	85.000000	59.188    	85.000000	71.9188
90.000000	14872.9   	90.000000	14602.3   	90.000000	14633.3   	90.000000	14650.4   	90.000000	92.462    	90.000000	46.0498   	90.000000	76.5456   	90.000000	64.9461   	90.000000	79.2514
95.000000	16316.3   	95.000000	16036.1   	95.000000	16061.3   	95.000000	16081.8   	95.000000	101.32    	95.000000	50.2336   	95.000000	83.8037   	95.000000	70.9058   	95.000000	86.8698
100.000000	17813.4   	100.000000	17524.6   	100.000000	17543.3   	100.000000	17567.7   	100.000000	110.478   	100.000000	54.5468   	100.000000	91.3108   	100.000000	77.0605   	100.000000	94.7656
105.000000	19363.3   	105.000000	19066.4   	105.000000	19078.1   	105.000000	19106.8   	105.000000	119.925   	105.000000	58.9858   	105.000000	99.0592   	105.000000	83.4046   	105.000000	102.932
110.000000	20964.8   	110.000000	20660.4   	110.000000	20664.9   	110.000000	20698     	110.000000	129.655   	110.000000	63.5485   	110.000000	107.042   	110.000000	89.9334   	110.000000	111.363
115.000000	22617     	115.000000	22305.5   	115.000000	22302.5   	115.000000	22340.3   	115.000000	139.659   	115.000000	68.231    	115.000000	115.254   	115.000000	96.6423   	115.000000	120.053
120.000000	24318.9   	120.000000	24000.6   	120.000000	23989.9   	120.000000	24032.6   	120.000000	149.925   	120.000000	73.026    	120.000000	123.685   	120.000000	103.525   	120.000000	128.995
125.000000	26069.7   	125.000000	25744.7   	125.000000	25725.9   	125.000000	25773.9   	125.000000	160.445   	125.000000	77.934    	125.000000	132.331   	125.000000	110.578   	125.000000	138.182
130.000000	27868.3   	130.000000	27536.6   	130.000000	27509.8   	130.000000	27563.3   	130.000000	171.212   	130.000000	82.951    	130.000000	141.185   	130.000000	117.797   	130.000000	147.61
135.000000	29714.1   	135.000000	29375.5   	135.000000	29340.7   	135.000000	29399.9   	135.000000	182.22    	135.000000	88.0747   	135.000000	150.241   	135.000000	125.177   	135.000000	157.274
140.000000	31606.3   	140.000000	31260.4   	140.000000	31217.5   	140.000000	31282.7   	140.000000	193.456   	140.000000	93.3031   	140.000000	159.492   	140.000000	132.714   	140.000000	167.166
145.000000	33543.9   	145.000000	33190.4   	145.000000	33139.3   	145.000000	33210.9   	145.000000	204.914   	145.000000	98.6304   	145.000000	168.933   	145.000000	140.403   	145.000000	177.282
150.000000	35526.5   	150.000000	35164.5   	150.000000	35105.4   	150.000000	35183.6   	150.000000	216.589   	150.000000	104.055   	150.000000	178.559   	150.000000	148.242   	150.000000	187.618
155.000000	37581.7   	155.000000	37182     	155.000000	37115.2   	155.000000	37200     	155.000000	228.475   	155.000000	109.576   	155.000000	188.365   	155.000000	156.227   	155.000000	198.169
160.000000	39679.7   	160.000000	39242     	160.000000	39167.5   	160.000000	39259.3   	160.000000	240.562   	160.000000	115.188   	160.000000	198.345   	160.000000	164.353   	160.000000	208.929
165.000000	41818.6   	165.000000	41343.7   	165.000000	41261.7   	165.000000	41360.8   	165.000000	252.845   	165.000000	120.891   	165.000000	208.494   	165.000000	172.618   	165.000000	219.894
170.000000	43997.7   	170.000000	43486.2   	170.000000	43397.3   	170.000000	43503.7   	170.000000	265.32    	170.000000	126.685   	170.000000	218.809   	170.000000	181.019   	170.000000	231.061
