*Energy (MeV/u)1	0 - [He-base] F.Hubert et al, AD&ND Tables 46(1990)1	Energy (MeV/u)2	1 - [H -base] J.F.Ziegler et al, Pergamon Press, NY (low energy)	Energy (MeV/u)3	2 - ATIMA 1.2  LS-theory (recommended for high energy)	Energy (MeV/u)4	3 - ATIMA 1.2  without LS-correction	Energy (MeV/u)5	4 - electrical component of [1] - J.F.Ziegler et al	Energy (MeV/u)6	5 - nuclear component of [1] - J.F.Ziegler et al	
0.001000	0.125567  	0.001000	0.0233432 	0.001000	0.0215084 	0.001000	0.0215084 	0.001000	0.0178752 	0.001000	0.00546806
0.002000	0.160448  	0.002000	0.0361926 	0.002000	0.0330173 	0.002000	0.0330173 	0.002000	0.0309332 	0.002000	0.00525946
0.005000	0.248233  	0.005000	0.064929  	0.005000	0.0587086 	0.005000	0.0587086 	0.005000	0.0605959 	0.005000	0.00433313
0.008000	0.314026  	0.008000	0.086674  	0.008000	0.0781539 	0.008000	0.0781539 	0.008000	0.0829977 	0.008000	0.00367629
0.010000	0.350322  	0.010000	0.0989581 	0.010000	0.0891435 	0.010000	0.0891435 	0.010000	0.095607  	0.010000	0.0033511
0.015000	0.446963  	0.015000	0.126039  	0.015000	0.112445  	0.015000	0.112445  	0.015000	0.123268  	0.015000	0.00277028
0.020000	0.527814  	0.020000	0.146002  	0.020000	0.132061  	0.020000	0.132061  	0.020000	0.14362   	0.020000	0.00238249
0.025000	0.596753  	0.025000	0.164097  	0.025000	0.149477  	0.025000	0.149477  	0.025000	0.161994  	0.025000	0.00210235
0.030000	0.655852  	0.030000	0.180783  	0.030000	0.179508  	0.030000	0.179508  	0.030000	0.178894  	0.030000	0.00188895
0.035000	0.706364  	0.035000	0.195876  	0.035000	0.199286  	0.035000	0.199286  	0.035000	0.194156  	0.035000	0.00172008
0.040000	0.749156  	0.040000	0.209352  	0.040000	0.213042  	0.040000	0.213042  	0.040000	0.207769  	0.040000	0.00158258
0.045000	0.784918  	0.045000	0.221312  	0.045000	0.223884  	0.045000	0.223884  	0.045000	0.219844  	0.045000	0.0014681
0.050000	0.814277  	0.050000	0.231908  	0.050000	0.233198  	0.050000	0.233198  	0.050000	0.230537  	0.050000	0.00137107
0.055000	0.837834  	0.055000	0.241292  	0.055000	0.241514  	0.055000	0.241514  	0.055000	0.240004  	0.055000	0.00128762
0.060000	0.856189  	0.060000	0.249607  	0.060000	0.249035  	0.060000	0.249035  	0.060000	0.248392  	0.060000	0.00121497
0.070000	0.879665  	0.070000	0.263511  	0.070000	0.262016  	0.070000	0.262016  	0.070000	0.262416  	0.070000	0.00109433
0.080000	0.889265  	0.080000	0.274416  	0.080000	0.272572  	0.080000	0.272572  	0.080000	0.273418  	0.080000	0.000997908
0.090000	0.88903   	0.090000	0.282909  	0.090000	0.281024  	0.090000	0.281024  	0.090000	0.281991  	0.090000	0.000918832
0.100000	0.882269  	0.100000	0.289422  	0.100000	0.287658  	0.100000	0.287658  	0.100000	0.288577  	0.100000	0.000844724
0.120000	0.858544  	0.120000	0.297848  	0.120000	0.296532  	0.120000	0.296532  	0.120000	0.297106  	0.120000	0.000741034
0.140000	0.830527  	0.140000	0.301712  	0.140000	0.300919  	0.140000	0.300919  	0.140000	0.30105   	0.140000	0.000662056
0.160000	0.803512  	0.160000	0.302415  	0.160000	0.302123  	0.160000	0.302123  	0.160000	0.301815  	0.160000	0.000599676
0.180000	0.779165  	0.180000	0.300951  	0.180000	0.30111   	0.180000	0.30111   	0.180000	0.300402  	0.180000	0.000549023
0.200000	0.757612  	0.200000	0.29803   	0.200000	0.298584  	0.200000	0.298584  	0.200000	0.297523  	0.200000	0.000506983
0.250000	0.713121  	0.250000	0.287307  	0.250000	0.288611  	0.250000	0.288611  	0.250000	0.286879  	0.250000	0.00042738
0.300000	0.676787  	0.300000	0.274789  	0.300000	0.276579  	0.300000	0.276579  	0.300000	0.274418  	0.300000	0.000370989
0.350000	0.644755  	0.350000	0.262286  	0.350000	0.264377  	0.350000	0.264377  	0.350000	0.261957  	0.350000	0.000328744
0.400000	0.615417  	0.400000	0.250466  	0.400000	0.252731  	0.400000	0.252731  	0.400000	0.25017   	0.400000	0.000295802
0.450000	0.588171  	0.450000	0.239535  	0.450000	0.24189   	0.450000	0.24189   	0.450000	0.239266  	0.450000	0.000269326
0.500000	0.562788  	0.500000	0.229517  	0.500000	0.231904  	0.500000	0.231904  	0.500000	0.229269  	0.500000	0.000247538
0.600000	0.517177  	0.600000	0.211995  	0.600000	0.214344  	0.600000	0.214344  	0.600000	0.211781  	0.600000	0.000213701
0.700000	0.477797  	0.700000	0.197312  	0.700000	0.199553  	0.700000	0.199553  	0.700000	0.197123  	0.700000	0.000188549
0.800000	0.443798  	0.800000	0.184886  	0.800000	0.186991  	0.800000	0.186991  	0.800000	0.184717  	0.800000	0.000169056
0.900000	0.414328  	0.900000	0.174243  	0.900000	0.176203  	0.900000	0.176203  	0.900000	0.17409   	0.900000	0.000153467
1.000000	0.388622  	1.000000	0.165017  	1.000000	0.166834  	1.000000	0.166834  	1.000000	0.164876  	1.000000	0.000140693
1.250000	0.336893  	1.250000	0.146478  	1.250000	0.147967  	1.250000	0.147967  	1.250000	0.146361  	1.250000	0.000116913
1.500000	0.297833  	1.500000	0.132368  	1.500000	0.133579  	1.500000	0.133579  	1.500000	0.132267  	1.500000	0.000100395
1.750000	0.267242  	1.750000	0.121161  	1.750000	0.122142  	1.750000	0.122142  	1.750000	0.121073  	1.750000	8.8204e-05
2.000000	0.242587  	2.000000	0.111984  	2.000000	0.112774  	2.000000	0.112774  	2.000000	0.111905  	2.000000	7.88087e-05
2.250000	0.222266  	2.250000	0.104299  	2.250000	0.104928  	2.250000	0.104928  	2.250000	0.104228  	2.250000	7.13303e-05
2.500000	0.201776  	2.500000	0.0977512 	2.500000	0.0982444 	2.500000	0.0982444 	2.500000	0.097686  	2.500000	6.52263e-05
3.000000	0.17612   	3.000000	0.0871546 	3.000000	0.0874326 	3.000000	0.0874326 	3.000000	0.0870988 	3.000000	5.58391e-05
3.500000	0.156671  	3.500000	0.0789236 	3.500000	0.0790406 	3.500000	0.0790406 	3.500000	0.0788747 	3.500000	4.89375e-05
4.000000	0.141376  	4.000000	0.0723283 	4.000000	0.0723217 	4.000000	0.0723217 	4.000000	0.0722846 	4.000000	4.36354e-05
4.500000	0.129005  	4.500000	0.0669139 	4.500000	0.0668104 	4.500000	0.0668104 	4.500000	0.0668745 	4.500000	3.94261e-05
5.000000	0.118775  	5.000000	0.0623811 	5.000000	0.0622003 	5.000000	0.0622003 	5.000000	0.0623451 	5.000000	3.5998e-05
5.500000	0.110164  	5.500000	0.0585241 	5.500000	0.0582806 	5.500000	0.0582806 	5.500000	0.0584909 	5.500000	3.31485e-05
6.000000	0.102808  	6.000000	0.055197  	6.000000	0.054902  	6.000000	0.054902  	6.000000	0.0551662 	6.000000	3.07403e-05
6.500000	0.0964458 	6.500000	0.0522933 	6.500000	0.0519556 	6.500000	0.0519556 	6.500000	0.0522646 	6.500000	2.86763e-05
7.000000	0.0908847 	7.000000	0.0497336 	7.000000	0.0493602 	7.000000	0.0493602 	7.000000	0.0497067 	7.000000	2.68865e-05
7.500000	0.0859794 	7.500000	0.0474574 	7.500000	0.0470538 	7.500000	0.0470538 	7.500000	0.0474321 	7.500000	2.53186e-05
8.000000	0.0816179 	8.000000	0.0454178 	8.000000	0.0449885 	8.000000	0.0449885 	8.000000	0.0453938 	8.000000	2.39332e-05
8.500000	0.0777129 	8.500000	0.0435778 	8.500000	0.0431267 	8.500000	0.0431267 	8.500000	0.0435551 	8.500000	2.26995e-05
9.000000	0.0741949 	9.000000	0.041908  	9.000000	0.0414381 	9.000000	0.0414381 	9.000000	0.0418864 	9.000000	2.15935e-05
9.500000	0.0710079 	9.500000	0.0403845 	9.500000	0.0398984 	9.500000	0.0398984 	9.500000	0.0403639 	9.500000	2.0596e-05
10.000000	0.0681063 	10.000000	0.0392462 	10.000000	0.0384879 	10.000000	0.0384879 	10.000000	0.0392265 	10.000000	1.96914e-05
11.000000	0.0630161 	11.000000	0.0369911 	11.000000	0.0360793 	11.000000	0.0360826 	11.000000	0.036973  	11.000000	1.81128e-05
12.000000	0.0586934 	12.000000	0.034979  	12.000000	0.0340029 	12.000000	0.0340085 	12.000000	0.0349622 	12.000000	1.67805e-05
13.000000	0.0549737 	13.000000	0.0331781 	13.000000	0.0321919 	13.000000	0.0321981 	13.000000	0.0331625 	13.000000	1.564e-05
14.000000	0.0517371 	14.000000	0.0315598 	14.000000	0.0305957 	14.000000	0.0306016 	14.000000	0.0315451 	14.000000	1.46521e-05
15.000000	0.0488935 	15.000000	0.0300992 	15.000000	0.0291755 	15.000000	0.0291814 	15.000000	0.0300855 	15.000000	1.37876e-05
16.000000	0.0463742 	16.000000	0.0287756 	16.000000	0.0279028 	16.000000	0.0279085 	16.000000	0.0287625 	16.000000	1.30244e-05
17.000000	0.0441259 	17.000000	0.0275709 	17.000000	0.0267551 	17.000000	0.0267601 	17.000000	0.0275586 	17.000000	1.23453e-05
18.000000	0.0421061 	18.000000	0.0264704 	18.000000	0.0257141 	18.000000	0.0257179 	18.000000	0.0264586 	18.000000	1.1737e-05
19.000000	0.0402813 	19.000000	0.0254612 	19.000000	0.0247645 	19.000000	0.0247672 	19.000000	0.02545   	19.000000	1.11887e-05
20.000000	0.0386238 	20.000000	0.0245325 	20.000000	0.0238933 	20.000000	0.023896  	20.000000	0.0245218 	20.000000	1.06919e-05
21.000000	0.0371114 	21.000000	0.0236752 	21.000000	0.0230902 	21.000000	0.0230932 	21.000000	0.023665  	21.000000	1.02395e-05
22.000000	0.0357253 	22.000000	0.0228814 	22.000000	0.0223493 	22.000000	0.0223515 	22.000000	0.0228716 	22.000000	9.8257e-06
23.000000	0.0344502 	23.000000	0.0221443 	23.000000	0.0216645 	23.000000	0.0216651 	23.000000	0.0221348 	23.000000	9.44568e-06
24.000000	0.033273  	24.000000	0.021458  	24.000000	0.0210279 	24.000000	0.0210269 	24.000000	0.0214489 	24.000000	9.09541e-06
25.000000	0.0321826 	25.000000	0.0208174 	25.000000	0.0204342 	25.000000	0.0204319 	25.000000	0.0208087 	25.000000	8.77146e-06
27.000000	0.0302257 	27.000000	0.0196564 	27.000000	0.0193601 	27.000000	0.0193542 	27.000000	0.0196482 	27.000000	8.19132e-06
29.000000	0.0285188 	29.000000	0.0186317 	29.000000	0.0184111 	29.000000	0.0184037 	29.000000	0.018624  	29.000000	7.68657e-06
31.000000	0.027016  	31.000000	0.0177205 	31.000000	0.0175434 	31.000000	0.0175356 	31.000000	0.0177133 	31.000000	7.24319e-06
33.000000	0.0256821 	33.000000	0.0169049 	33.000000	0.0167479 	33.000000	0.0167378 	33.000000	0.0168981 	33.000000	6.85046e-06
35.000000	0.0244898 	35.000000	0.0161705 	35.000000	0.0160298 	35.000000	0.0160202 	35.000000	0.016164  	35.000000	6.50006e-06
38.000000	0.02292   	38.000000	0.0151961 	38.000000	0.0150801 	38.000000	0.0150689 	38.000000	0.0151901 	38.000000	6.03973e-06
41.000000	0.0215641 	41.000000	0.0143478 	41.000000	0.0142523 	41.000000	0.0142409 	41.000000	0.0143422 	41.000000	5.64305e-06
44.000000	0.0203804 	44.000000	0.0136024 	44.000000	0.0135232 	44.000000	0.0135131 	44.000000	0.0135971 	44.000000	5.29749e-06
47.000000	0.0193374 	47.000000	0.012942  	47.000000	0.0128794 	47.000000	0.0128679 	47.000000	0.012937  	47.000000	4.99361e-06
50.000000	0.018411  	50.000000	0.0123528 	50.000000	0.0123032 	50.000000	0.0122916 	50.000000	0.0123481 	50.000000	4.72421e-06
55.000000	0.0170766 	55.000000	0.0114999 	55.000000	0.0114688 	55.000000	0.0114562 	55.000000	0.0114955 	55.000000	4.33705e-06
60.000000	0.01595   	60.000000	0.0107762 	60.000000	0.0107575 	60.000000	0.0107459 	60.000000	0.0107721 	60.000000	4.01104e-06
65.000000	0.0149852 	65.000000	0.0101541 	65.000000	0.010146  	65.000000	0.010134  	65.000000	0.0101504 	65.000000	3.73256e-06
70.000000	0.0141491 	70.000000	0.00961345	70.000000	0.0096132 	70.000000	0.00960111	70.000000	0.00960995	70.000000	3.4918e-06
75.000000	0.013417  	75.000000	0.00913907	75.000000	0.00914365	75.000000	0.00913252	75.000000	0.00913579	75.000000	3.28148e-06
80.000000	0.0127703 	80.000000	0.00871937	80.000000	0.00872919	80.000000	0.00871709	80.000000	0.00871627	80.000000	3.09608e-06
85.000000	0.0121946 	85.000000	0.00834531	85.000000	0.00835761	85.000000	0.00834613	85.000000	0.00834237	85.000000	2.93137e-06
90.000000	0.0116785 	90.000000	0.00800975	90.000000	0.00802372	90.000000	0.00801274	90.000000	0.00800697	90.000000	2.78403e-06
95.000000	0.0112131 	95.000000	0.007707  	95.000000	0.00772319	95.000000	0.00771144	95.000000	0.00770435	95.000000	2.65139e-06
100.000000	0.010791  	100.000000	0.00743242	100.000000	0.00744897	100.000000	0.00743772	100.000000	0.00742989	100.000000	2.53135e-06
105.000000	0.0104063 	105.000000	0.00718222	105.000000	0.00719873	105.000000	0.00718794	105.000000	0.00717979	105.000000	2.42215e-06
110.000000	0.0100542 	110.000000	0.00695326	110.000000	0.00696929	110.000000	0.00695904	110.000000	0.00695093	110.000000	2.32238e-06
115.000000	0.00973062	115.000000	0.00674292	115.000000	0.00675911	115.000000	0.00674849	115.000000	0.00674069	115.000000	2.23085e-06
120.000000	0.00943209	120.000000	0.00654901	120.000000	0.00656499	120.000000	0.00655415	120.000000	0.00654686	120.000000	2.14655e-06
125.000000	0.00915577	125.000000	0.00636965	125.000000	0.00638447	125.000000	0.00637419	125.000000	0.00636759	125.000000	2.06867e-06
130.000000	0.0088992 	130.000000	0.00620327	130.000000	0.00621706	130.000000	0.00620707	130.000000	0.00620127	130.000000	1.99647e-06
135.000000	0.0086603 	135.000000	0.00604848	135.000000	0.00606188	135.000000	0.00605145	135.000000	0.00604655	135.000000	1.92935e-06
140.000000	0.00843723	140.000000	0.00590411	140.000000	0.00591664	140.000000	0.00590618	140.000000	0.00590224	140.000000	1.86679e-06
145.000000	0.00822845	145.000000	0.00576914	145.000000	0.00578033	145.000000	0.00577025	145.000000	0.00576733	145.000000	1.80832e-06
150.000000	0.00803259	150.000000	0.00564267	150.000000	0.00565261	150.000000	0.00564279	150.000000	0.00564091	150.000000	1.75357e-06
155.000000	0.00775682	155.000000	0.00552392	155.000000	0.00553251	155.000000	0.00552303	155.000000	0.00552221	155.000000	1.70216e-06
160.000000	0.00759517	160.000000	0.0054122 	160.000000	0.00541969	160.000000	0.00541029	160.000000	0.00541054	160.000000	1.65382e-06
165.000000	0.00744274	165.000000	0.0053069 	165.000000	0.00531372	165.000000	0.00530397	165.000000	0.00530529	165.000000	1.60825e-06
170.000000	0.00729875	170.000000	0.00520748	170.000000	0.00521332	170.000000	0.00520353	170.000000	0.00520592	170.000000	1.56524e-06
175.000000	0.0071625 	175.000000	0.00511347	175.000000	0.005118  	175.000000	0.00510851	175.000000	0.00511194	175.000000	1.52456e-06
180.000000	0.00703339	180.000000	0.00502443	180.000000	0.00502776	180.000000	0.00501848	180.000000	0.00502294	180.000000	1.48604e-06
185.000000	0.00691084	185.000000	0.00493997	185.000000	0.00494212	185.000000	0.00493305	185.000000	0.00493852	185.000000	1.44949e-06
190.000000	0.00679438	190.000000	0.00485975	190.000000	0.00486072	190.000000	0.00485189	190.000000	0.00485834	190.000000	1.41477e-06
195.000000	0.00668355	195.000000	0.00478347	195.000000	0.00478356	195.000000	0.00477468	195.000000	0.00478209	195.000000	1.38175e-06
200.000000	0.00657795	200.000000	0.00471083	200.000000	0.00471029	200.000000	0.00470114	200.000000	0.00470948	200.000000	1.35029e-06
210.000000	0.006381  	210.000000	0.0045755 	210.000000	0.00457308	210.000000	0.0045641 	210.000000	0.00457421	210.000000	1.29167e-06
220.000000	0.006201  	220.000000	0.00445199	220.000000	0.00444766	220.000000	0.00443899	220.000000	0.00445075	220.000000	1.23812e-06
230.000000	0.00603584	230.000000	0.00433881	230.000000	0.00433267	230.000000	0.00432434	230.000000	0.00433762	230.000000	1.18901e-06
240.000000	0.00588373	240.000000	0.00423474	240.000000	0.00422746	240.000000	0.0042189 	240.000000	0.00423359	240.000000	1.14379e-06
250.000000	0.00574319	250.000000	0.00413871	250.000000	0.00413021	250.000000	0.00412163	250.000000	0.00413761	250.000000	1.10203e-06
260.000000	0.00561293	260.000000	0.00404985	260.000000	0.00403992	260.000000	0.00403163	260.000000	0.00404878	260.000000	1.06333e-06
270.000000	0.00549187	270.000000	0.00396737	270.000000	0.00395619	270.000000	0.00394813	270.000000	0.00396635	270.000000	1.02736e-06
280.000000	0.00537906	280.000000	0.00389064	280.000000	0.00387833	280.000000	0.00387046	280.000000	0.00388964	280.000000	9.93837e-07
290.000000	0.00527369	290.000000	0.00381906	290.000000	0.00380616	290.000000	0.00379806	290.000000	0.0038181 	290.000000	9.62521e-07
300.000000	0.00517506	300.000000	0.00375216	300.000000	0.00373853	300.000000	0.00373041	300.000000	0.00375123	300.000000	9.33196e-07
310.000000	0.00508253	310.000000	0.00368949	310.000000	0.00367497	310.000000	0.00366708	310.000000	0.00368858	310.000000	9.05676e-07
320.000000	0.00499556	320.000000	0.00363067	320.000000	0.00361543	320.000000	0.00360768	320.000000	0.00362979	320.000000	8.79796e-07
330.000000	0.00491368	330.000000	0.00357536	330.000000	0.00355942	330.000000	0.00355186	330.000000	0.0035745 	330.000000	8.55412e-07
340.000000	0.00483645	340.000000	0.00352327	340.000000	0.00350681	340.000000	0.00349933	340.000000	0.00352243	340.000000	8.32397e-07
350.000000	0.00476349	350.000000	0.00347412	350.000000	0.00345749	350.000000	0.00344982	350.000000	0.00347331	350.000000	8.10636e-07
360.000000	0.00469446	360.000000	0.00342769	360.000000	0.0034108 	360.000000	0.00340308	360.000000	0.0034269 	360.000000	7.90029e-07
370.000000	0.00462907	370.000000	0.00338376	370.000000	0.00336646	370.000000	0.0033589 	370.000000	0.00338299	370.000000	7.70485e-07
380.000000	0.00456703	380.000000	0.00334214	380.000000	0.00332451	380.000000	0.00331707	380.000000	0.00334139	380.000000	7.51923e-07
390.000000	0.0045081 	390.000000	0.00330266	390.000000	0.00328477	390.000000	0.00327744	390.000000	0.00330192	390.000000	7.34269e-07
400.000000	0.00445206	400.000000	0.00326516	400.000000	0.00324701	400.000000	0.00323984	400.000000	0.00326444	400.000000	7.17458e-07
410.000000	0.00439871	410.000000	0.0032295 	410.000000	0.00321122	410.000000	0.00320412	410.000000	0.0032288 	410.000000	7.01429e-07
420.000000	0.00434786	420.000000	0.00319556	420.000000	0.00317737	420.000000	0.00317015	420.000000	0.00319487	420.000000	6.86129e-07
430.000000	0.00429935	430.000000	0.00316322	430.000000	0.00314517	430.000000	0.00313783	430.000000	0.00316255	430.000000	6.71509e-07
440.000000	0.00425303	440.000000	0.00313237	440.000000	0.00311434	440.000000	0.00310703	440.000000	0.00313171	440.000000	6.57523e-07
450.000000	0.00420876	450.000000	0.00310292	450.000000	0.00308486	450.000000	0.00307767	450.000000	0.00310228	450.000000	6.44131e-07
460.000000	0.00416641	460.000000	0.00307479	460.000000	0.00305673	460.000000	0.00304964	460.000000	0.00307416	460.000000	6.31295e-07
470.000000	0.00412587	470.000000	0.00304788	470.000000	0.00302989	470.000000	0.00302287	470.000000	0.00304726	470.000000	6.1898e-07
480.000000	0.00408702	480.000000	0.00302213	480.000000	0.00300428	480.000000	0.00299735	480.000000	0.00302152	480.000000	6.07156e-07
490.000000	0.00404977	490.000000	0.00299746	490.000000	0.00297982	490.000000	0.002973  	490.000000	0.00299687	490.000000	5.95792e-07
500.000000	0.00401403	500.000000	0.00297382	500.000000	0.00295645	500.000000	0.00294967	500.000000	0.00297324	500.000000	5.84863e-07
520.000000	0.00394675	520.000000	0.00292938	520.000000	0.00291284	520.000000	0.0029059 	520.000000	0.00292881	520.000000	5.6421e-07
540.000000	0.00388456	540.000000	0.00288839	540.000000	0.00287256	540.000000	0.0028656 	540.000000	0.00288784	540.000000	5.4502e-07
560.000000	0.00382696	560.000000	0.00285048	560.000000	0.00283521	560.000000	0.00282842	560.000000	0.00284996	560.000000	5.2714e-07
580.000000	0.00377348	580.000000	0.00281536	580.000000	0.00280072	580.000000	0.00279403	580.000000	0.00281485	580.000000	5.1044e-07
600.000000	0.00372374	600.000000	0.00278275	600.000000	0.00276873	600.000000	0.00276217	600.000000	0.00278226	600.000000	4.94805e-07
620.000000	0.0036774 	620.000000	0.00275242	620.000000	0.00273908	620.000000	0.0027326 	620.000000	0.00275194	620.000000	4.80135e-07
640.000000	0.00363414	640.000000	0.00272415	640.000000	0.00271168	640.000000	0.0027051 	640.000000	0.00272368	640.000000	4.66342e-07
660.000000	0.00359372	660.000000	0.00269777	660.000000	0.00268616	660.000000	0.00267949	660.000000	0.00269732	660.000000	4.53349e-07
680.000000	0.00355588	680.000000	0.00267311	680.000000	0.00266219	680.000000	0.0026556 	680.000000	0.00267267	680.000000	4.41087e-07
700.000000	0.00352043	700.000000	0.00265003	700.000000	0.00263977	700.000000	0.00263328	700.000000	0.0026496 	700.000000	4.29496e-07
720.000000	0.00348716	720.000000	0.00262841	720.000000	0.00261883	720.000000	0.00261241	720.000000	0.00262799	720.000000	4.1852e-07
