*Energy (MeV/u)1	0 - [He-base] F.Hubert et al, AD&ND Tables 46(1990)1	Energy (MeV/u)2	1 - [H -base] J.F.Ziegler et al, Pergamon Press, NY (low energy)	Energy (MeV/u)3	2 - ATIMA 1.2  LS-theory (recommended for high energy)	Energy (MeV/u)4	3 - ATIMA 1.2  without LS-correction	Energy (MeV/u)5	4 - electrical component of [1] - J.F.Ziegler et al	Energy (MeV/u)6	5 - nuclear component of [1] - J.F.Ziegler et al	
0.001000	0.0930969 	0.001000	0.0194041 	0.001000	0.0175626 	0.001000	0.0175626 	0.001000	0.0179388 	0.001000	0.0014653 	
0.002000	0.110914  	0.002000	0.0259023 	0.002000	0.0233867 	0.002000	0.0233867 	0.002000	0.0245051 	0.002000	0.00139713	
0.005000	0.145664  	0.005000	0.0381474 	0.005000	0.034348  	0.005000	0.034348  	0.005000	0.037011  	0.005000	0.00113645	
0.008000	0.169492  	0.008000	0.0466864 	0.008000	0.0419921 	0.008000	0.0419921 	0.008000	0.0457282 	0.008000	0.000958135	
0.010000	0.182484  	0.010000	0.0514294 	0.010000	0.0462393 	0.010000	0.0462393 	0.010000	0.0505585 	0.010000	0.000870956	
0.015000	0.220095  	0.015000	0.0619149 	0.015000	0.0551662 	0.015000	0.0551662 	0.015000	0.0611983 	0.015000	0.00071667	
0.020000	0.250912  	0.020000	0.0692523 	0.020000	0.0625895 	0.020000	0.0625895 	0.020000	0.0686377 	0.020000	0.000614539	
0.025000	0.276399  	0.025000	0.0758597 	0.025000	0.0690625 	0.025000	0.0690625 	0.025000	0.0753185 	0.025000	0.000541156	
0.030000	0.297338  	0.030000	0.0818271 	0.030000	0.0812475 	0.030000	0.0812475 	0.030000	0.0813416 	0.030000	0.000485464	
0.035000	0.314246  	0.035000	0.0870199 	0.035000	0.0885406 	0.035000	0.0885406 	0.035000	0.0865784 	0.035000	0.000441517	
0.040000	0.327528  	0.040000	0.0914177 	0.040000	0.0930341 	0.040000	0.0930341 	0.040000	0.0910119 	0.040000	0.000405812	
0.045000	0.337549  	0.045000	0.0950739 	0.045000	0.0961815 	0.045000	0.0961815 	0.045000	0.0946977 	0.045000	0.000376137	
0.050000	0.344659  	0.050000	0.0980688 	0.050000	0.0986158 	0.050000	0.0986158 	0.050000	0.0977178 	0.050000	0.000351022	
0.055000	0.349207  	0.055000	0.100487  	0.055000	0.10058   	0.055000	0.10058   	0.055000	0.100158  	0.055000	0.000329449	
0.060000	0.351531  	0.060000	0.102407  	0.060000	0.102172  	0.060000	0.102172  	0.060000	0.102097  	0.060000	0.000310688	
0.070000	0.350807  	0.070000	0.105024  	0.070000	0.104428  	0.070000	0.104428  	0.070000	0.104745  	0.070000	0.000279578	
0.080000	0.344878  	0.080000	0.106373  	0.080000	0.105657  	0.080000	0.105657  	0.080000	0.106118  	0.080000	0.00025475	
0.090000	0.335712  	0.090000	0.106786  	0.090000	0.106073  	0.090000	0.106073  	0.090000	0.106553  	0.090000	0.000232213	
0.100000	0.324801  	0.100000	0.106513  	0.100000	0.105863  	0.100000	0.105863  	0.100000	0.106298  	0.100000	0.000215423	
0.120000	0.301576  	0.120000	0.104598  	0.120000	0.104135  	0.120000	0.104135  	0.120000	0.104409  	0.120000	0.000188794	
0.140000	0.279795  	0.140000	0.101624  	0.140000	0.101357  	0.140000	0.101357  	0.140000	0.101456  	0.140000	0.000168544	
0.160000	0.260886  	0.160000	0.098174  	0.160000	0.0980793 	0.160000	0.0980793 	0.160000	0.0980214 	0.160000	0.00015257	
0.180000	0.24491   	0.180000	0.0945838 	0.180000	0.094634  	0.180000	0.094634  	0.180000	0.0944442 	0.180000	0.000139612	
0.200000	0.231468  	0.200000	0.0910442 	0.200000	0.0912133 	0.200000	0.0912133 	0.200000	0.0909153 	0.200000	0.000128867	
0.250000	0.20594   	0.250000	0.0829595 	0.250000	0.0833362 	0.250000	0.0833362 	0.250000	0.0828509 	0.250000	0.000108542	
0.300000	0.187738  	0.300000	0.0762111 	0.300000	0.0767077 	0.300000	0.0767077 	0.300000	0.076117  	0.300000	9.41612e-05	
0.350000	0.173761  	0.350000	0.0706662 	0.350000	0.0712295 	0.350000	0.0712295 	0.350000	0.0705828 	0.350000	8.3398e-05	
0.400000	0.162427  	0.400000	0.0660786 	0.400000	0.0666763 	0.400000	0.0666763 	0.400000	0.0660036 	0.400000	7.5011e-05	
0.450000	0.152888  	0.450000	0.0622292 	0.450000	0.062841  	0.450000	0.062841  	0.450000	0.0621609 	0.450000	6.82741e-05	
0.500000	0.144655  	0.500000	0.0589491 	0.500000	0.0595623 	0.500000	0.0595623 	0.500000	0.0588863 	0.500000	6.2733e-05	
0.600000	0.130988  	0.600000	0.0536292 	0.600000	0.0542236 	0.600000	0.0542236 	0.600000	0.0535751 	0.600000	5.41323e-05	
0.700000	0.119972  	0.700000	0.0494612 	0.700000	0.050023  	0.700000	0.050023  	0.700000	0.0494134 	0.700000	4.77434e-05	
0.800000	0.110835  	0.800000	0.046074  	0.800000	0.0465985 	0.800000	0.0465985 	0.800000	0.0460312 	0.800000	4.27943e-05	
0.900000	0.103104  	0.900000	0.0432454 	0.900000	0.043732  	0.900000	0.043732  	0.900000	0.0432066 	0.900000	3.88382e-05	
1.000000	0.0964627 	1.000000	0.0408339 	1.000000	0.0412836 	1.000000	0.0412836 	1.000000	0.0407983 	1.000000	3.55975e-05	
1.250000	0.0832989 	1.250000	0.0360734 	1.250000	0.03644   	1.250000	0.03644   	1.250000	0.0360439 	1.250000	2.95677e-05	
1.500000	0.073492  	1.500000	0.0325134 	1.500000	0.032811  	1.500000	0.032811  	1.500000	0.032488  	1.500000	2.53817e-05	
1.750000	0.0658792 	1.750000	0.0297228 	1.750000	0.0299635 	1.750000	0.0299635 	1.750000	0.0297005 	1.750000	2.22934e-05	
2.000000	0.0597848 	2.000000	0.0274616 	2.000000	0.0276553 	2.000000	0.0276553 	2.000000	0.0274417 	2.000000	1.99143e-05	
2.250000	0.0547872 	2.250000	0.0255837 	2.250000	0.025738  	2.250000	0.025738  	2.250000	0.0255657 	2.250000	1.80211e-05	
2.500000	0.0503904 	2.500000	0.0239936 	2.500000	0.0241146 	2.500000	0.0241146 	2.500000	0.0239771 	2.500000	1.64763e-05	
3.000000	0.0439998 	3.000000	0.021435  	3.000000	0.0215034 	3.000000	0.0215034 	3.000000	0.0214209 	3.000000	1.41012e-05	
3.500000	0.0391497 	3.500000	0.0194546 	3.500000	0.0194834 	3.500000	0.0194834 	3.500000	0.0194422 	3.500000	1.23556e-05	
4.000000	0.0353325 	4.000000	0.0178675 	4.000000	0.0178659 	4.000000	0.0178659 	4.000000	0.0178565 	4.000000	1.10149e-05	
4.500000	0.0322435 	4.500000	0.016562  	4.500000	0.0165364 	4.500000	0.0165364 	4.500000	0.0165521 	4.500000	9.95079e-06	
5.000000	0.0296885 	5.000000	0.0154658 	5.000000	0.015421  	5.000000	0.015421  	5.000000	0.0154567 	5.000000	9.08434e-06	
5.500000	0.0275373 	5.500000	0.0145299 	5.500000	0.0144694 	5.500000	0.0144694 	5.500000	0.0145215 	5.500000	8.36427e-06	
6.000000	0.0256993 	6.000000	0.0137198 	6.000000	0.0136465 	6.000000	0.0136465 	6.000000	0.013712  	6.000000	7.75577e-06	
6.500000	0.0241095 	6.500000	0.0130106 	6.500000	0.0129266 	6.500000	0.0129266 	6.500000	0.0130033 	6.500000	7.23434e-06	
7.000000	0.0227197 	7.000000	0.0123835 	7.000000	0.0122906 	7.000000	0.0122906 	7.000000	0.0123768 	7.000000	6.78222e-06	
7.500000	0.0214937 	7.500000	0.0118245 	7.500000	0.011724  	7.500000	0.011724  	7.500000	0.0118181 	7.500000	6.38623e-06	
8.000000	0.0204036 	8.000000	0.0113224 	8.000000	0.0112154 	8.000000	0.0112154 	8.000000	0.0113164 	8.000000	6.03633e-06	
8.500000	0.0194276 	8.500000	0.0108686 	8.500000	0.0107561 	8.500000	0.0107561 	8.500000	0.0108628 	8.500000	5.72479e-06	
9.000000	0.0185482 	9.000000	0.010456  	9.000000	0.0103387 	9.000000	0.0103387 	9.000000	0.0104505 	9.000000	5.44551e-06	
9.500000	0.0177515 	9.500000	0.010079  	9.500000	0.00995766	9.500000	0.00995766	9.500000	0.0100738 	9.500000	5.19365e-06	
10.000000	0.0170262 	10.000000	0.00979738	10.000000	0.00960807	10.000000	0.00960807	10.000000	0.00979241	10.000000	4.96527e-06	
11.000000	0.0157538 	11.000000	0.00923804	11.000000	0.0090075 	11.000000	0.00900762	11.000000	0.00923347	11.000000	4.56677e-06	
12.000000	0.0146732 	12.000000	0.00873798	12.000000	0.00848914	12.000000	0.00848938	12.000000	0.00873375	12.000000	4.23047e-06	
13.000000	0.0137433 	13.000000	0.00828974	13.000000	0.00803665	13.000000	0.00803679	13.000000	0.0082858 	13.000000	3.94263e-06	
14.000000	0.0129342 	14.000000	0.00788652	14.000000	0.00763759	14.000000	0.00763758	14.000000	0.00788282	14.000000	3.69333e-06	
15.000000	0.0122233 	15.000000	0.00752233	15.000000	0.0072824 	15.000000	0.00728242	15.000000	0.00751886	15.000000	3.47518e-06	
16.000000	0.0115935 	16.000000	0.00719207	16.000000	0.00696423	16.000000	0.00696411	16.000000	0.00718879	16.000000	3.2826e-06	
17.000000	0.0110314 	17.000000	0.00689139	17.000000	0.00667745	17.000000	0.00667695	17.000000	0.00688828	17.000000	3.11128e-06	
18.000000	0.0105265 	18.000000	0.00661659	18.000000	0.00641709	18.000000	0.00641641	18.000000	0.00661363	18.000000	2.95781e-06	
19.000000	0.0100703 	19.000000	0.00636454	19.000000	0.00617945	19.000000	0.00617879	19.000000	0.00636172	19.000000	2.81951e-06	
20.000000	0.00965594	20.000000	0.00613256	20.000000	0.00596175	20.000000	0.00596107	20.000000	0.00612986	20.000000	2.69419e-06	
21.000000	0.00927783	21.000000	0.00591837	21.000000	0.00576134	21.000000	0.00576061	21.000000	0.00591579	21.000000	2.58008e-06	
22.000000	0.00893133	22.000000	0.00572002	22.000000	0.00557617	22.000000	0.00557546	22.000000	0.00571754	22.000000	2.47571e-06	
23.000000	0.00861255	23.000000	0.00553581	23.000000	0.00540474	23.000000	0.00540402	23.000000	0.00553343	23.000000	2.37986e-06	
24.000000	0.00831824	24.000000	0.0053643 	24.000000	0.00524564	24.000000	0.00524464	24.000000	0.00536201	24.000000	2.29153e-06	
25.000000	0.00804563	25.000000	0.00520421	25.000000	0.00509751	25.000000	0.00509605	25.000000	0.005202  	25.000000	2.20983e-06	
27.000000	0.00755642	27.000000	0.004914  	27.000000	0.00482884	27.000000	0.004827  	27.000000	0.00491193	27.000000	2.06354e-06	
29.000000	0.00712969	29.000000	0.00465786	29.000000	0.00459155	29.000000	0.00458974	29.000000	0.00465592	29.000000	1.93627e-06	
31.000000	0.00675399	31.000000	0.0044301 	31.000000	0.00437544	31.000000	0.00437361	31.000000	0.00442828	31.000000	1.82448e-06	
33.000000	0.00642053	33.000000	0.00422622	33.000000	0.00417709	33.000000	0.00417537	33.000000	0.00422449	33.000000	1.72547e-06	
35.000000	0.00612244	35.000000	0.00404262	35.000000	0.00399852	35.000000	0.00399699	35.000000	0.00404098	35.000000	1.63713e-06	
38.000000	0.00573001	38.000000	0.00379903	38.000000	0.00376246	38.000000	0.0037604 	38.000000	0.00379751	38.000000	1.5211e-06	
41.000000	0.00539103	41.000000	0.00358696	41.000000	0.0035565 	41.000000	0.00355437	41.000000	0.00358554	41.000000	1.42111e-06	
44.000000	0.0050951 	44.000000	0.0034006 	44.000000	0.00337514	44.000000	0.00337319	44.000000	0.00339927	44.000000	1.33401e-06	
47.000000	0.00483435	47.000000	0.00323551	47.000000	0.00321437	47.000000	0.00321252	47.000000	0.00323426	47.000000	1.25743e-06	
50.000000	0.00460275	50.000000	0.0030882 	50.000000	0.00307071	50.000000	0.00306898	50.000000	0.00308702	50.000000	1.18954e-06	
55.000000	0.00426915	55.000000	0.00287497	55.000000	0.00286241	55.000000	0.00286081	55.000000	0.00287388	55.000000	1.09198e-06	
60.000000	0.00398749	60.000000	0.00269405	60.000000	0.00268534	60.000000	0.00268376	60.000000	0.00269304	60.000000	1.00983e-06	
65.000000	0.00374629	65.000000	0.00253853	65.000000	0.00253307	65.000000	0.0025312 	65.000000	0.00253759	65.000000	9.39667e-07	
70.000000	0.00353726	70.000000	0.00240337	70.000000	0.00239999	70.000000	0.00239829	70.000000	0.00240249	70.000000	8.79011e-07	
75.000000	0.00335425	75.000000	0.00228477	75.000000	0.00228301	75.000000	0.0022814 	75.000000	0.00228395	75.000000	8.26025e-07	
80.000000	0.00319258	80.000000	0.00217985	80.000000	0.00217927	80.000000	0.00217776	80.000000	0.00217907	80.000000	7.79323e-07	
85.000000	0.00304865	85.000000	0.00208633	85.000000	0.00208662	85.000000	0.00208519	85.000000	0.00208559	85.000000	7.37834e-07	
90.000000	0.00291963	90.000000	0.00200244	90.000000	0.00200337	90.000000	0.00200199	90.000000	0.00200174	90.000000	7.0072e-07	
95.000000	0.00280327	95.000000	0.00192675	95.000000	0.00192842	95.000000	0.00192679	95.000000	0.00192609	95.000000	6.67314e-07	
100.000000	0.00269774	100.000000	0.00185811	100.000000	0.00186003	100.000000	0.00185846	100.000000	0.00185747	100.000000	6.37079e-07	
105.000000	0.00260158	105.000000	0.00179556	105.000000	0.0017976 	105.000000	0.00179611	105.000000	0.00179495	105.000000	6.09579e-07	
110.000000	0.00251356	110.000000	0.00173832	110.000000	0.0017404 	110.000000	0.00173896	110.000000	0.00173773	110.000000	5.84452e-07	
115.000000	0.00243265	115.000000	0.00168573	115.000000	0.00168778	115.000000	0.00168639	115.000000	0.00168517	115.000000	5.614e-07 	
120.000000	0.00235802	120.000000	0.00163726	120.000000	0.0016392 	120.000000	0.00163787	120.000000	0.00163672	120.000000	5.40174e-07	
125.000000	0.00228894	125.000000	0.00159242	125.000000	0.00159423	125.000000	0.00159293	125.000000	0.0015919 	125.000000	5.2056e-07	
130.000000	0.0022248 	130.000000	0.00155082	130.000000	0.00155245	130.000000	0.0015512 	130.000000	0.00155032	130.000000	5.0238e-07	
135.000000	0.00216507	135.000000	0.00151212	135.000000	0.00151352	135.000000	0.00151234	135.000000	0.00151164	135.000000	4.8548e-07	
140.000000	0.00210931	140.000000	0.00147603	140.000000	0.00147733	140.000000	0.00147605	140.000000	0.00147556	140.000000	4.69727e-07	
145.000000	0.00205711	145.000000	0.00144229	145.000000	0.00144349	145.000000	0.00144211	145.000000	0.00144183	145.000000	4.55007e-07	
150.000000	0.00200815	150.000000	0.00141067	150.000000	0.00141162	150.000000	0.00141027	150.000000	0.00141023	150.000000	4.41219e-07	
155.000000	0.0019392 	155.000000	0.00138098	155.000000	0.00138165	155.000000	0.00138036	155.000000	0.00138055	155.000000	4.28278e-07	
160.000000	0.00189879	160.000000	0.00135305	160.000000	0.00135347	160.000000	0.0013522 	160.000000	0.00135264	160.000000	4.16105e-07	
165.000000	0.00186069	165.000000	0.00132673	165.000000	0.00132688	165.000000	0.00132564	165.000000	0.00132632	165.000000	4.04635e-07	
170.000000	0.00182469	170.000000	0.00130187	170.000000	0.00130176	170.000000	0.00130055	170.000000	0.00130148	170.000000	3.93805e-07	
175.000000	0.00179063	175.000000	0.00127837	175.000000	0.001278  	175.000000	0.00127681	175.000000	0.00127799	175.000000	3.83565e-07	
180.000000	0.00175835	180.000000	0.00125611	180.000000	0.00125548	180.000000	0.00125432	180.000000	0.00125573	180.000000	3.73866e-07	
185.000000	0.00172771	185.000000	0.00123499	185.000000	0.00123412	185.000000	0.00123298	185.000000	0.00123463	185.000000	3.64665e-07	
190.000000	0.00169859	190.000000	0.00121494	190.000000	0.00121382	190.000000	0.0012127 	190.000000	0.00121458	190.000000	3.55926e-07	
195.000000	0.00167089	195.000000	0.00119587	195.000000	0.0011945 	195.000000	0.00119342	195.000000	0.00119552	195.000000	3.47612e-07	
200.000000	0.00164449	200.000000	0.00117771	200.000000	0.0011761 	200.000000	0.00117504	200.000000	0.00117737	200.000000	3.39695e-07	
210.000000	0.00159525	210.000000	0.00114388	210.000000	0.00114198	210.000000	0.00114081	210.000000	0.00114355	210.000000	3.24937e-07	
220.000000	0.00155025	220.000000	0.001113  	220.000000	0.00111072	220.000000	0.00110955	220.000000	0.00111269	220.000000	3.11458e-07	
230.000000	0.00150896	230.000000	0.00108471	230.000000	0.00108203	230.000000	0.0010809 	230.000000	0.00108441	230.000000	2.99096e-07	
240.000000	0.00147093	240.000000	0.00105869	240.000000	0.00105565	240.000000	0.00105456	240.000000	0.0010584 	240.000000	2.87716e-07	
250.000000	0.0014358 	250.000000	0.00103468	250.000000	0.00103132	250.000000	0.00103025	250.000000	0.0010344 	250.000000	2.77204e-07	
260.000000	0.00140323	260.000000	0.00101246	260.000000	0.0010088 	260.000000	0.00100776	260.000000	0.0010122 	260.000000	2.67463e-07	
270.000000	0.00137297	270.000000	0.000991845	270.000000	0.000987911	270.000000	0.000986899	270.000000	0.000991586	270.000000	2.5841e-07	
280.000000	0.00134477	280.000000	0.000972661	280.000000	0.000968479	280.000000	0.000967492	280.000000	0.000972411	280.000000	2.49974e-07	
290.000000	0.00131842	290.000000	0.000954767	290.000000	0.000950347	290.000000	0.000949399	290.000000	0.000954525	290.000000	2.42093e-07	
300.000000	0.00129376	300.000000	0.000938041	300.000000	0.000933489	300.000000	0.000932494	300.000000	0.000937807	300.000000	2.34713e-07	
310.000000	0.00127063	310.000000	0.000922373	310.000000	0.000917729	310.000000	0.000916668	310.000000	0.000922146	310.000000	2.27787e-07	
320.000000	0.00124889	320.000000	0.000907668	320.000000	0.000902862	320.000000	0.000901824	320.000000	0.000907447	320.000000	2.21275e-07	
330.000000	0.00122842	330.000000	0.000893841	330.000000	0.000888885	330.000000	0.000887876	330.000000	0.000893626	330.000000	2.15139e-07	
340.000000	0.00120911	340.000000	0.000880818	340.000000	0.000875743	340.000000	0.000874749	340.000000	0.000880609	340.000000	2.09347e-07	
350.000000	0.00119087	350.000000	0.000868532	350.000000	0.000863352	350.000000	0.000862375	350.000000	0.000868328	350.000000	2.03871e-07	
360.000000	0.00117362	360.000000	0.000856924	360.000000	0.000851654	360.000000	0.000850694	360.000000	0.000856726	360.000000	1.98686e-07	
370.000000	0.00115727	370.000000	0.000845942	370.000000	0.000840596	370.000000	0.000839652	370.000000	0.000845748	370.000000	1.93768e-07	
380.000000	0.00114176	380.000000	0.000835536	380.000000	0.00083013	380.000000	0.000829201	380.000000	0.000835347	380.000000	1.89097e-07	
390.000000	0.00112702	390.000000	0.000825665	390.000000	0.000820211	390.000000	0.000819295	390.000000	0.000825481	390.000000	1.84655e-07	
400.000000	0.00111301	400.000000	0.00081629	400.000000	0.000810799	400.000000	0.000809897	400.000000	0.00081611	400.000000	1.80425e-07	
410.000000	0.00109968	410.000000	0.000807376	410.000000	0.00080186	410.000000	0.000800971	410.000000	0.0008072 	410.000000	1.76392e-07	
420.000000	0.00108697	420.000000	0.000798891	420.000000	0.000793363	420.000000	0.000792483	420.000000	0.000798718	420.000000	1.72542e-07	
430.000000	0.00107484	430.000000	0.000790805	430.000000	0.000785271	430.000000	0.000784404	430.000000	0.000790637	430.000000	1.68864e-07	
440.000000	0.00106326	440.000000	0.000783094	440.000000	0.000777553	440.000000	0.000776707	440.000000	0.000782929	440.000000	1.65345e-07	
450.000000	0.00105219	450.000000	0.000775732	450.000000	0.000770204	450.000000	0.000769368	450.000000	0.00077557	450.000000	1.61975e-07	
460.000000	0.0010416 	460.000000	0.000768698	460.000000	0.000763224	460.000000	0.000762363	460.000000	0.000768539	460.000000	1.58746e-07	
470.000000	0.00103147	470.000000	0.000761971	470.000000	0.000756575	470.000000	0.000755673	470.000000	0.000761815	470.000000	1.55648e-07	
480.000000	0.00102176	480.000000	0.000755533	480.000000	0.000750219	480.000000	0.000749295	480.000000	0.00075538	480.000000	1.52673e-07	
490.000000	0.00101244	490.000000	0.000749367	490.000000	0.000744125	490.000000	0.000743207	490.000000	0.000749217	490.000000	1.49814e-07	
500.000000	0.00100351	500.000000	0.000743456	500.000000	0.000738278	500.000000	0.000737378	500.000000	0.000743309	500.000000	1.47064e-07	
520.000000	0.000986687	520.000000	0.000732345	520.000000	0.000727316	520.000000	0.000726437	520.000000	0.000732204	520.000000	1.41868e-07	
540.000000	0.000971141	540.000000	0.000722097	540.000000	0.000717231	540.000000	0.000716365	540.000000	0.00072196	540.000000	1.3704e-07	
560.000000	0.000956739	560.000000	0.000712622	560.000000	0.000707921	560.000000	0.000707072	560.000000	0.000712489	560.000000	1.32543e-07	
580.000000	0.00094337	580.000000	0.000703841	580.000000	0.000699314	580.000000	0.000698478	580.000000	0.000703713	580.000000	1.28341e-07	
600.000000	0.000930935	600.000000	0.000695689	600.000000	0.000691337	600.000000	0.000690515	600.000000	0.000695564	600.000000	1.24408e-07	
620.000000	0.000919349	620.000000	0.000688105	620.000000	0.000683934	620.000000	0.000683124	620.000000	0.000687984	620.000000	1.20718e-07	
640.000000	0.000908536	640.000000	0.000681038	640.000000	0.000677051	640.000000	0.00067625	640.000000	0.000680921	640.000000	1.17248e-07	
660.000000	0.00089843	660.000000	0.000674443	660.000000	0.000670635	660.000000	0.000669848	660.000000	0.000674329	660.000000	1.1398e-07	
680.000000	0.000888971	680.000000	0.000668279	680.000000	0.000664646	680.000000	0.000663877	680.000000	0.000668168	680.000000	1.10896e-07	
