*Energy (MeV/u)1	0 - [He-base] F.Hubert et al, AD&ND Tables 46(1990)1	Energy (MeV/u)2	1 - [H -base] J.F.Ziegler et al, Pergamon Press, NY (low energy)	Energy (MeV/u)3	2 - ATIMA 1.2  LS-theory (recommended for high energy)	Energy (MeV/u)4	3 - ATIMA 1.2  without LS-correction	Energy (MeV/u)5	4 - electrical component of [1] - J.F.Ziegler et al	Energy (MeV/u)6	5 - nuclear component of [1] - J.F.Ziegler et al	
0.001000	0.149487  	0.001000	0.134919  	0.001000	0.1415    	0.001000	0.1415    	0.001000	0.0764777 	0.001000	0.0584415
0.002000	0.164217  	0.002000	0.142905  	0.002000	0.151775  	0.002000	0.151775  	0.002000	0.100206  	0.002000	0.0426991
0.005000	0.202008  	0.005000	0.168619  	0.005000	0.182185  	0.005000	0.182185  	0.005000	0.143358  	0.005000	0.0252608
0.008000	0.231578  	0.008000	0.190923  	0.008000	0.207998  	0.008000	0.207998  	0.008000	0.172338  	0.008000	0.0185843
0.010000	0.248278  	0.010000	0.204026  	0.010000	0.223121  	0.010000	0.223121  	0.010000	0.1881    	0.010000	0.0159261
0.015000	0.29074   	0.015000	0.232212  	0.015000	0.255178  	0.015000	0.255178  	0.015000	0.220362  	0.015000	0.0118506
0.020000	0.324762  	0.020000	0.256204  	0.020000	0.285874  	0.020000	0.285874  	0.020000	0.246609  	0.020000	0.00959442
0.025000	0.363038  	0.025000	0.284481  	0.025000	0.315453  	0.025000	0.315453  	0.025000	0.276368  	0.025000	0.00811391
0.030000	0.395552  	0.030000	0.311303  	0.030000	0.340907  	0.030000	0.340907  	0.030000	0.304243  	0.030000	0.00706007
0.035000	0.422316  	0.035000	0.336427  	0.035000	0.364963  	0.035000	0.364963  	0.035000	0.33016   	0.035000	0.0062678
0.040000	0.443419  	0.040000	0.359868  	0.040000	0.387689  	0.040000	0.387689  	0.040000	0.35422   	0.040000	0.00564828
0.045000	0.45897   	0.045000	0.38164   	0.045000	0.409138  	0.045000	0.409138  	0.045000	0.376491  	0.045000	0.00514924
0.050000	0.46858   	0.050000	0.401166  	0.050000	0.429355  	0.050000	0.429355  	0.050000	0.396428  	0.050000	0.00473781
0.055000	0.488423  	0.055000	0.422322  	0.055000	0.44838   	0.055000	0.44838   	0.055000	0.41793   	0.055000	0.00439221
0.060000	0.505151  	0.060000	0.442228  	0.060000	0.466252  	0.060000	0.466252  	0.060000	0.43813   	0.060000	0.00409742
0.070000	0.53019   	0.070000	0.478333  	0.070000	0.498685  	0.070000	0.498685  	0.070000	0.474713  	0.070000	0.00362023
0.080000	0.556913  	0.080000	0.509103  	0.080000	0.52696   	0.080000	0.52696   	0.080000	0.505854  	0.080000	0.00324968
0.090000	0.576825  	0.090000	0.535307  	0.090000	0.551394  	0.090000	0.551394  	0.090000	0.532354  	0.090000	0.00295287
0.100000	0.591642  	0.100000	0.557311  	0.100000	0.572311  	0.100000	0.572311  	0.100000	0.554602  	0.100000	0.00270933
0.120000	0.596948  	0.120000	0.591636  	0.120000	0.604882  	0.120000	0.604882  	0.120000	0.589304  	0.120000	0.0023324
0.140000	0.596284  	0.140000	0.614298  	0.140000	0.627153  	0.140000	0.627153  	0.140000	0.612245  	0.140000	0.00205328
0.160000	0.597127  	0.160000	0.630905  	0.160000	0.641341  	0.160000	0.641341  	0.160000	0.629068  	0.160000	0.00183761
0.180000	0.60064   	0.180000	0.644718  	0.180000	0.649324  	0.180000	0.649324  	0.180000	0.643052  	0.180000	0.00166556
0.200000	0.603754  	0.200000	0.652638  	0.200000	0.652635  	0.200000	0.652635  	0.200000	0.651113  	0.200000	0.00152488
0.250000	0.596373  	0.250000	0.657505  	0.250000	0.647794  	0.250000	0.647794  	0.250000	0.656241  	0.250000	0.00126374
0.300000	0.593916  	0.300000	0.656185  	0.300000	0.633172  	0.300000	0.633172  	0.300000	0.655102  	0.300000	0.00108297
0.350000	0.590501  	0.350000	0.65057   	0.350000	0.619025  	0.350000	0.619025  	0.350000	0.64962   	0.350000	0.000949888
0.400000	0.589714  	0.400000	0.647506  	0.400000	0.603983  	0.400000	0.603983  	0.400000	0.646658  	0.400000	0.000847548
0.450000	0.585569  	0.450000	0.641896  	0.450000	0.587961  	0.450000	0.587961  	0.450000	0.64113   	0.450000	0.000766231
0.500000	0.578143  	0.500000	0.633741  	0.500000	0.571821  	0.500000	0.571821  	0.500000	0.633041  	0.500000	0.000699957
0.600000	0.538528  	0.600000	0.598079  	0.600000	0.540369  	0.600000	0.540369  	0.600000	0.59748   	0.600000	0.000598221
0.700000	0.497039  	0.700000	0.562946  	0.700000	0.512793  	0.700000	0.512793  	0.700000	0.562423  	0.700000	0.000523577
0.800000	0.473672  	0.800000	0.528536  	0.800000	0.488489  	0.800000	0.488489  	0.800000	0.52807   	0.800000	0.000466327
0.900000	0.451551  	0.900000	0.497551  	0.900000	0.466818  	0.900000	0.466818  	0.900000	0.49713   	0.900000	0.000420941
1.000000	0.430882  	1.000000	0.46955   	1.000000	0.44727   	1.000000	0.44727   	1.000000	0.469166  	1.000000	0.000384021
1.250000	0.382898  	1.250000	0.418792  	1.250000	0.40361   	1.250000	0.40361   	1.250000	0.418476  	1.250000	0.000315984
1.500000	0.344164  	1.500000	0.378963  	1.500000	0.368637  	1.500000	0.368637  	1.500000	0.378694  	1.500000	0.00026929
1.750000	0.312531  	1.750000	0.346955  	1.750000	0.33966   	1.750000	0.33966   	1.750000	0.34672   	1.750000	0.000235146
2.000000	0.284712  	2.000000	0.318731  	2.000000	0.314991  	2.000000	0.314991  	2.000000	0.318522  	2.000000	0.000209032
2.250000	0.261772  	2.250000	0.293295  	2.250000	0.293653  	2.250000	0.293653  	2.250000	0.293107  	2.250000	0.000188377
2.500000	0.237641  	2.500000	0.272307  	2.500000	0.274996  	2.500000	0.274996  	2.500000	0.272136  	2.500000	0.000171609
3.000000	0.209763  	3.000000	0.239225  	3.000000	0.24398   	3.000000	0.24398   	3.000000	0.239079  	3.000000	0.000145993
3.500000	0.188062  	3.500000	0.213941  	3.500000	0.21926   	3.500000	0.21926   	3.500000	0.213814  	3.500000	0.0001273
4.000000	0.170671  	4.000000	0.193786  	4.000000	0.199153  	4.000000	0.199153  	4.000000	0.193673  	4.000000	0.000113027
4.500000	0.156405  	4.500000	0.177265  	4.500000	0.182512  	4.500000	0.182512  	4.500000	0.177163  	4.500000	0.000101754
5.000000	0.144481  	5.000000	0.163446  	5.000000	0.168528  	5.000000	0.168528  	5.000000	0.163353  	5.000000	9.26132e-05
5.500000	0.134359  	5.500000	0.151853  	5.500000	0.156619  	5.500000	0.156619  	5.500000	0.151767  	5.500000	8.50449e-05
6.000000	0.125653  	6.000000	0.141874  	6.000000	0.146358  	6.000000	0.146358  	6.000000	0.141795  	6.000000	7.86701e-05
6.500000	0.118081  	6.500000	0.133191  	6.500000	0.137424  	6.500000	0.137424  	6.500000	0.133118  	6.500000	7.32233e-05
7.000000	0.111432  	7.000000	0.125564  	7.000000	0.129575  	7.000000	0.129575  	7.000000	0.125495  	7.000000	6.85131e-05
7.500000	0.105544  	7.500000	0.118809  	7.500000	0.122623  	7.500000	0.122623  	7.500000	0.118745  	7.500000	6.43973e-05
8.000000	0.100291  	8.000000	0.112783  	8.000000	0.11642   	8.000000	0.11642   	8.000000	0.112722  	8.000000	6.07687e-05
8.500000	0.0955756 	8.500000	0.107373  	8.500000	0.110851  	8.500000	0.110851  	8.500000	0.107315  	8.500000	5.75444e-05
9.000000	0.0913168 	9.000000	0.102487  	9.000000	0.105822  	9.000000	0.105822  	9.000000	0.102433  	9.000000	5.46594e-05
9.500000	0.0874505 	9.500000	0.0980524 	9.500000	0.101256  	9.500000	0.101256  	9.500000	0.0980003 	9.500000	5.20621e-05
10.000000	0.083924  	10.000000	0.0968843 	10.000000	0.0970908 	10.000000	0.0970908 	10.000000	0.0968346 	10.000000	4.97109e-05
11.000000	0.0777234 	11.000000	0.0897563 	11.000000	0.089685  	11.000000	0.0897117 	11.000000	0.0897107 	11.000000	4.56173e-05
12.000000	0.072444  	12.000000	0.0836696 	12.000000	0.0833958 	12.000000	0.083439  	12.000000	0.0836275 	12.000000	4.2172e-05
13.000000	0.0678918 	13.000000	0.0784101 	13.000000	0.0779878 	13.000000	0.078041  	13.000000	0.0783708 	13.000000	3.92304e-05
14.000000	0.0639242 	14.000000	0.0738183 	14.000000	0.0732874 	14.000000	0.0733467 	14.000000	0.0737816 	14.000000	3.66882e-05
15.000000	0.0604337 	15.000000	0.0697736 	15.000000	0.0691646 	15.000000	0.0692272 	15.000000	0.0697392 	15.000000	3.44682e-05
16.000000	0.0573378 	16.000000	0.0661827 	16.000000	0.0655203 	16.000000	0.0655835 	16.000000	0.0661502 	16.000000	3.2512e-05
17.000000	0.0545721 	17.000000	0.0629725 	17.000000	0.0622765 	17.000000	0.0623383 	17.000000	0.0629417 	17.000000	3.07747e-05
18.000000	0.0520856 	18.000000	0.0600847 	18.000000	0.0593706 	18.000000	0.0594303 	18.000000	0.0600554 	18.000000	2.9221e-05
19.000000	0.0498375 	19.000000	0.0574725 	19.000000	0.0567524 	19.000000	0.0568102 	19.000000	0.0574447 	19.000000	2.78228e-05
20.000000	0.0477945 	20.000000	0.0550978 	20.000000	0.0543813 	20.000000	0.0544381 	20.000000	0.0550712 	20.000000	2.65576e-05
21.000000	0.0459292 	21.000000	0.0529292 	21.000000	0.0522257 	21.000000	0.052281  	21.000000	0.0529038 	21.000000	2.54071e-05
22.000000	0.044219  	22.000000	0.0509406 	22.000000	0.0502603 	22.000000	0.0503118 	22.000000	0.0509163 	22.000000	2.4356e-05
23.000000	0.0426452 	23.000000	0.0491103 	23.000000	0.0484613 	23.000000	0.0485076 	23.000000	0.0490869 	23.000000	2.3392e-05
24.000000	0.0411916 	24.000000	0.0474197 	24.000000	0.0468072 	24.000000	0.0468493 	24.000000	0.0473972 	24.000000	2.25044e-05
25.000000	0.0398448 	25.000000	0.0458533 	25.000000	0.0452815 	25.000000	0.0453205 	25.000000	0.0458316 	25.000000	2.16844e-05
27.000000	0.0374269 	27.000000	0.0430413 	27.000000	0.0425655 	27.000000	0.0425976 	27.000000	0.0430211 	27.000000	2.02182e-05
29.000000	0.0353169 	29.000000	0.0405878 	29.000000	0.0402248 	29.000000	0.040249  	29.000000	0.0405689 	29.000000	1.89448e-05
31.000000	0.0334586 	31.000000	0.0384275 	31.000000	0.0381497 	31.000000	0.0381645 	31.000000	0.0384097 	31.000000	1.78283e-05
33.000000	0.0318088 	33.000000	0.0365102 	33.000000	0.0362737 	33.000000	0.0362795 	33.000000	0.0364934 	33.000000	1.68408e-05
35.000000	0.0303336 	35.000000	0.0347965 	35.000000	0.0345915 	35.000000	0.0345934 	35.000000	0.0347806 	35.000000	1.5961e-05
38.000000	0.0283911 	38.000000	0.0325412 	38.000000	0.032379  	38.000000	0.0323722 	38.000000	0.0325264 	38.000000	1.48072e-05
41.000000	0.0267129 	41.000000	0.0305942 	41.000000	0.0304643 	41.000000	0.0304523 	41.000000	0.0305804 	41.000000	1.38148e-05
44.000000	0.0252474 	44.000000	0.0288955 	44.000000	0.0287902 	44.000000	0.0287753 	44.000000	0.0288825 	44.000000	1.29517e-05
47.000000	0.0239561 	47.000000	0.0273999 	47.000000	0.0273149 	47.000000	0.0272972 	47.000000	0.0273877 	47.000000	1.21939e-05
50.000000	0.0228089 	50.000000	0.0260726 	50.000000	0.0260035 	50.000000	0.0259841 	50.000000	0.0260611 	50.000000	1.15231e-05
55.000000	0.0211564 	55.000000	0.0241631 	55.000000	0.0241183 	55.000000	0.0240924 	55.000000	0.0241525 	55.000000	1.05606e-05
60.000000	0.019761  	60.000000	0.0225535 	60.000000	0.0225228 	60.000000	0.0224954 	60.000000	0.0225437 	60.000000	9.75181e-06
65.000000	0.018566  	65.000000	0.0211775 	65.000000	0.021155  	65.000000	0.0211282 	65.000000	0.0211684 	65.000000	9.06215e-06
70.000000	0.0175303 	70.000000	0.0199872 	70.000000	0.0199726 	70.000000	0.0199441 	70.000000	0.0199788 	70.000000	8.46685e-06
75.000000	0.0166234 	75.000000	0.0189471 	75.000000	0.0189377 	75.000000	0.0189081 	75.000000	0.0189391 	75.000000	7.94757e-06
80.000000	0.0158223 	80.000000	0.01803   	80.000000	0.0180242 	80.000000	0.0179937 	80.000000	0.0180225 	80.000000	7.49047e-06
85.000000	0.0151091 	85.000000	0.0172151 	85.000000	0.0172118 	85.000000	0.0171805 	85.000000	0.0172081 	85.000000	7.08488e-06
90.000000	0.0144697 	90.000000	0.0164862 	90.000000	0.0164821 	90.000000	0.0164524 	90.000000	0.0164795 	90.000000	6.72247e-06
95.000000	0.013893  	95.000000	0.0158301 	95.000000	0.0158269 	95.000000	0.0157966 	95.000000	0.0158237 	95.000000	6.39661e-06
100.000000	0.0133701 	100.000000	0.0152363 	100.000000	0.0152335 	100.000000	0.0152026 	100.000000	0.0152302 	100.000000	6.10197e-06
105.000000	0.0128936 	105.000000	0.0146963 	105.000000	0.0146936 	105.000000	0.0146621 	105.000000	0.0146905 	105.000000	5.83422e-06
110.000000	0.0124573 	110.000000	0.014203  	110.000000	0.0141984 	110.000000	0.0141681 	110.000000	0.0141974 	110.000000	5.5898e-06
115.000000	0.0120564 	115.000000	0.0137506 	115.000000	0.0137449 	115.000000	0.0137148 	115.000000	0.0137452 	115.000000	5.36575e-06
120.000000	0.0116865 	120.000000	0.0133341 	120.000000	0.0133281 	120.000000	0.0132974 	120.000000	0.013329  	120.000000	5.15959e-06
125.000000	0.0113442 	125.000000	0.0129494 	125.000000	0.0129422 	125.000000	0.0129116 	125.000000	0.0129445 	125.000000	4.96925e-06
130.000000	0.0110263 	130.000000	0.012593  	130.000000	0.0125836 	130.000000	0.0125541 	130.000000	0.0125882 	130.000000	4.79294e-06
135.000000	0.0107303 	135.000000	0.0122618 	135.000000	0.0122513 	135.000000	0.0122218 	135.000000	0.0122572 	135.000000	4.62916e-06
140.000000	0.0104539 	140.000000	0.0119532 	140.000000	0.0119422 	140.000000	0.0119121 	140.000000	0.0119488 	140.000000	4.47659e-06
145.000000	0.0101952 	145.000000	0.011665  	145.000000	0.0116527 	145.000000	0.0116228 	145.000000	0.0116607 	145.000000	4.33411e-06
150.000000	0.00995255	150.000000	0.0113952 	150.000000	0.0113809 	150.000000	0.0113519 	150.000000	0.011391  	150.000000	4.20074e-06
155.000000	0.00961086	155.000000	0.0111421 	155.000000	0.0111267 	155.000000	0.0110978 	155.000000	0.0111381 	155.000000	4.07562e-06
160.000000	0.00941058	160.000000	0.0109042 	160.000000	0.0108878 	160.000000	0.0108588 	160.000000	0.0109002 	160.000000	3.958e-06
165.000000	0.00922172	165.000000	0.0106801 	165.000000	0.010662  	165.000000	0.0106338 	165.000000	0.0106763 	165.000000	3.84722e-06
170.000000	0.00904332	170.000000	0.0104687 	170.000000	0.0104493 	170.000000	0.0104214 	170.000000	0.0104649 	170.000000	3.74269e-06
175.000000	0.0088745 	175.000000	0.0102689 	175.000000	0.0102489 	175.000000	0.0102208 	175.000000	0.0102652 	175.000000	3.64389e-06
180.000000	0.00871452	180.000000	0.0100798 	180.000000	0.0100593 	180.000000	0.0100308 	180.000000	0.0100762 	180.000000	3.55036e-06
185.000000	0.00856269	185.000000	0.0099005 	185.000000	0.00987901	185.000000	0.00985079	185.000000	0.00989704	185.000000	3.46168e-06
190.000000	0.00841839	190.000000	0.00973033	190.000000	0.00970745	190.000000	0.00967988	190.000000	0.00972695	190.000000	3.37748e-06
195.000000	0.00828107	195.000000	0.00956858	195.000000	0.00954478	195.000000	0.00951745	195.000000	0.00956528	195.000000	3.29742e-06
200.000000	0.00815023	200.000000	0.00941463	200.000000	0.00939038	200.000000	0.00936287	200.000000	0.00941141	200.000000	3.2212e-06
210.000000	0.00790621	210.000000	0.00912803	210.000000	0.00910181	210.000000	0.00907513	210.000000	0.00912495	210.000000	3.07922e-06
220.000000	0.00768319	220.000000	0.00886667	220.000000	0.0088395 	220.000000	0.00881281	220.000000	0.00886372	220.000000	2.94964e-06
230.000000	0.00747854	230.000000	0.00862737	230.000000	0.00859872	230.000000	0.00857271	230.000000	0.00862454	230.000000	2.83089e-06
240.000000	0.00729008	240.000000	0.00840746	240.000000	0.00837791	240.000000	0.00835215	240.000000	0.00840474	240.000000	2.72164e-06
250.000000	0.00711594	250.000000	0.00820469	250.000000	0.00817497	250.000000	0.00814886	250.000000	0.00820207	250.000000	2.6208e-06
260.000000	0.00695455	260.000000	0.00801714	260.000000	0.00798665	260.000000	0.00796093	260.000000	0.00801461	260.000000	2.5274e-06
270.000000	0.00680456	270.000000	0.00784317	270.000000	0.00781188	270.000000	0.0077867 	270.000000	0.00784073	270.000000	2.44066e-06
280.000000	0.00666479	280.000000	0.00768138	280.000000	0.00765005	280.000000	0.00762474	280.000000	0.00767902	280.000000	2.35987e-06
290.000000	0.00653423	290.000000	0.00753055	290.000000	0.00749856	290.000000	0.00747384	290.000000	0.00752826	290.000000	2.28444e-06
300.000000	0.00641202	300.000000	0.0073896 	300.000000	0.00735745	300.000000	0.00733292	300.000000	0.00738739	300.000000	2.21384e-06
310.000000	0.00629738	310.000000	0.00725762	310.000000	0.00722558	310.000000	0.00720104	310.000000	0.00725548	310.000000	2.14763e-06
320.000000	0.00618963	320.000000	0.00713379	320.000000	0.00710136	320.000000	0.00707737	320.000000	0.00713171	320.000000	2.08538e-06
330.000000	0.00608817	330.000000	0.00701739	330.000000	0.0069851 	330.000000	0.00696121	330.000000	0.00701537	330.000000	2.02677e-06
340.000000	0.00599247	340.000000	0.00690779	340.000000	0.00687581	340.000000	0.00685189	340.000000	0.00690582	340.000000	1.97147e-06
350.000000	0.00590208	350.000000	0.00680442	350.000000	0.00677231	350.000000	0.00674886	350.000000	0.0068025 	350.000000	1.91921e-06
360.000000	0.00581655	360.000000	0.00670677	360.000000	0.00667485	360.000000	0.00665161	360.000000	0.0067049 	360.000000	1.86974e-06
370.000000	0.00573552	370.000000	0.0066144 	370.000000	0.00658253	370.000000	0.00655918	370.000000	0.00661257	370.000000	1.82285e-06
380.000000	0.00565866	380.000000	0.0065269 	380.000000	0.00649476	380.000000	0.00647168	380.000000	0.00652512	380.000000	1.77832e-06
390.000000	0.00558564	390.000000	0.00644391	390.000000	0.00641143	390.000000	0.00638873	390.000000	0.00644217	390.000000	1.736e-06
400.000000	0.00551621	400.000000	0.0063651 	400.000000	0.00633272	400.000000	0.00631002	400.000000	0.0063634 	400.000000	1.69571e-06
410.000000	0.00545011	410.000000	0.00629017	410.000000	0.00625798	410.000000	0.00623523	410.000000	0.00628851	410.000000	1.65731e-06
420.000000	0.00538711	420.000000	0.00621885	420.000000	0.00618656	420.000000	0.0061641 	420.000000	0.00621723	420.000000	1.62066e-06
430.000000	0.005327  	430.000000	0.00615091	430.000000	0.00611851	430.000000	0.00609636	430.000000	0.00614932	430.000000	1.58566e-06
440.000000	0.00526961	440.000000	0.00608611	440.000000	0.00605394	440.000000	0.00603181	440.000000	0.00608455	440.000000	1.55219e-06
450.000000	0.00521476	450.000000	0.00602425	450.000000	0.00599242	450.000000	0.00597022	450.000000	0.00602273	450.000000	1.52015e-06
460.000000	0.00516229	460.000000	0.00596515	460.000000	0.00593345	460.000000	0.00591142	460.000000	0.00596366	460.000000	1.48945e-06
470.000000	0.00511205	470.000000	0.00590863	470.000000	0.00587694	470.000000	0.00585522	470.000000	0.00590717	470.000000	1.46001e-06
480.000000	0.00506392	480.000000	0.00585454	480.000000	0.00582304	480.000000	0.00580147	480.000000	0.00585311	480.000000	1.43174e-06
490.000000	0.00501777	490.000000	0.00580273	490.000000	0.00577164	490.000000	0.00575001	490.000000	0.00580133	490.000000	1.40459e-06
500.000000	0.00497349	500.000000	0.00575308	500.000000	0.00572238	500.000000	0.00570072	500.000000	0.0057517 	500.000000	1.37848e-06
520.000000	0.00489012	520.000000	0.00565973	520.000000	0.00562938	520.000000	0.00560815	520.000000	0.00565841	520.000000	1.32917e-06
540.000000	0.00481307	540.000000	0.00557363	540.000000	0.00554393	540.000000	0.00552284	540.000000	0.00557235	540.000000	1.28337e-06
560.000000	0.00474169	560.000000	0.00549401	560.000000	0.00546514	560.000000	0.00544404	560.000000	0.00549277	560.000000	1.24073e-06
580.000000	0.00467543	580.000000	0.00542023	580.000000	0.00539178	580.000000	0.00537107	580.000000	0.00541903	580.000000	1.20092e-06
600.000000	0.00461381	600.000000	0.0053517 	600.000000	0.00532398	600.000000	0.00530337	600.000000	0.00535054	600.000000	1.16366e-06
620.000000	0.00455638	620.000000	0.00528795	620.000000	0.00526108	620.000000	0.00524043	620.000000	0.00528682	620.000000	1.12872e-06
640.000000	0.00450279	640.000000	0.00522853	640.000000	0.00520216	640.000000	0.00518179	640.000000	0.00522743	640.000000	1.09588e-06
660.000000	0.00445271	660.000000	0.00517306	660.000000	0.00514721	660.000000	0.00512708	660.000000	0.00517199	660.000000	1.06497e-06
680.000000	0.00440583	680.000000	0.00512119	680.000000	0.00509613	680.000000	0.00507595	680.000000	0.00512016	680.000000	1.0358e-06
700.000000	0.0043619 	700.000000	0.00507264	700.000000	0.00504824	700.000000	0.00502809	700.000000	0.00507163	700.000000	1.00824e-06
720.000000	0.00432068	720.000000	0.00502712	720.000000	0.00500312	720.000000	0.00498323	720.000000	0.00502614	720.000000	9.82154e-07
740.000000	0.00428197	740.000000	0.0049844 	740.000000	0.00496082	740.000000	0.00494112	740.000000	0.00498345	740.000000	9.57427e-07
