Energy (MeV/u)1	0 - [He-base] F.Hubert et al, AD&ND Tables 46(1990)1	Energy (MeV/u)2	1 - [H -base] J.F.Ziegler et al, Pergamon Press, NY (low energy)	Energy (MeV/u)3	2 - ATIMA 1.2  LS-theory (recommended for high energy)	Energy (MeV/u)4	3 - ATIMA 1.2  without LS-correction	Energy (MeV/u)5	4 - electrical component of [1] - J.F.Ziegler et al	Energy (MeV/u)6	5 - nuclear component of [1] - J.F.Ziegler et al	
0.001000	1.08132   	0.001000	0.20752   	0.001000	0.172174  	0.001000	0.172174  	0.001000	0.136184  	0.001000	0.0713361 	
0.002000	1.1547    	0.002000	0.258938  	0.002000	0.212913  	0.002000	0.212913  	0.002000	0.18863   	0.002000	0.0703082 	
0.005000	1.35396   	0.005000	0.350242  	0.005000	0.285556  	0.005000	0.285556  	0.005000	0.290163  	0.005000	0.0600794 	
0.008000	1.52123   	0.008000	0.413812  	0.008000	0.337128  	0.008000	0.337128  	0.008000	0.361891  	0.008000	0.0519206 	
0.010000	1.61902   	0.010000	0.449628  	0.010000	0.366592  	0.010000	0.366592  	0.010000	0.401907  	0.010000	0.0477204 	
0.015000	1.91121   	0.015000	0.526283  	0.015000	0.430536  	0.015000	0.430536  	0.015000	0.486283  	0.015000	0.0400003 	
0.020000	2.16355   	0.020000	0.591392  	0.020000	0.485659  	0.020000	0.485659  	0.020000	0.556686  	0.020000	0.0347066 	
0.025000	2.44466   	0.025000	0.660142  	0.025000	0.541193  	0.025000	0.541193  	0.025000	0.629324  	0.025000	0.0308186 	
0.030000	2.68621   	0.030000	0.740233  	0.030000	0.65286   	0.030000	0.65286   	0.030000	0.712411  	0.030000	0.0278223 	
0.035000	2.82675   	0.035000	0.817459  	0.035000	0.732511  	0.035000	0.732511  	0.035000	0.792028  	0.035000	0.0254306 	
0.040000	2.93349   	0.040000	0.888401  	0.040000	0.793466  	0.040000	0.793466  	0.040000	0.864931  	0.040000	0.0234699 	
0.045000	3.0086    	0.045000	0.930017  	0.045000	0.845768  	0.045000	0.845768  	0.045000	0.908188  	0.045000	0.0218285 	
0.050000	3.05451   	0.050000	0.96416   	0.050000	0.893767  	0.050000	0.893767  	0.050000	0.943729  	0.050000	0.0204308 	
0.055000	3.16976   	0.055000	0.995923  	0.055000	0.938962  	0.055000	0.938962  	0.055000	0.976699  	0.055000	0.0192241 	
0.060000	3.26746   	0.060000	1.02553   	0.060000	0.981787  	0.060000	0.981787  	0.060000	1.00736   	0.060000	0.0181699 	
0.070000	3.42103   	0.070000	1.07904   	0.070000	1.06065   	0.070000	1.06065   	0.070000	1.06263   	0.070000	0.0164123 	
0.080000	3.62712   	0.080000	1.1279    	0.080000	1.13066   	0.080000	1.13066   	0.080000	1.1129    	0.080000	0.0150009 	
0.090000	3.79112   	0.090000	1.18458   	0.090000	1.19224   	0.090000	1.19224   	0.090000	1.17074   	0.090000	0.013839  	
0.100000	3.92301   	0.100000	1.2337    	0.100000	1.2461    	0.100000	1.2461    	0.100000	1.22084   	0.100000	0.0128634 	
0.120000	4.02588   	0.120000	1.31299   	0.120000	1.33363   	0.120000	1.33363   	0.120000	1.30178   	0.120000	0.0112058 	
0.140000	4.08608   	0.140000	1.3725    	0.140000	1.39957   	0.140000	1.39957   	0.140000	1.36246   	0.140000	0.0100351 	
0.160000	4.13326   	0.160000	1.41717   	0.160000	1.44909   	0.160000	1.44909   	0.160000	1.40807   	0.160000	0.00910673	
0.180000	4.1804    	0.180000	1.45091   	0.180000	1.48637   	0.180000	1.48637   	0.180000	1.44256   	0.180000	0.0083505 	
0.200000	4.23196   	0.200000	1.47663   	0.200000	1.51465   	0.200000	1.51465   	0.200000	1.46891   	0.200000	0.00772125	
0.250000	4.25375   	0.250000	1.52092   	0.250000	1.56005   	0.250000	1.56005   	0.250000	1.5144    	0.250000	0.0065257 	
0.300000	4.30019   	0.300000	1.55557   	0.300000	1.58505   	0.300000	1.58505   	0.300000	1.5499    	0.300000	0.0056755 	
0.350000	4.33412   	0.350000	1.57614   	0.350000	1.59968   	0.350000	1.59968   	0.350000	1.5711    	0.350000	0.00503678	
0.400000	4.35389   	0.400000	1.58852   	0.400000	1.60836   	0.400000	1.60836   	0.400000	1.58398   	0.400000	0.00453759	
0.450000	4.37672   	0.450000	1.60167   	0.450000	1.61674   	0.450000	1.61674   	0.450000	1.59754   	0.450000	0.00413567	
0.500000	4.38197   	0.500000	1.61037   	0.500000	1.63346   	0.500000	1.63346   	0.500000	1.60656   	0.500000	0.00380442	
0.600000	4.22464   	0.600000	1.62196   	0.600000	1.65036   	0.600000	1.65036   	0.600000	1.61867   	0.600000	0.00328906	
0.700000	4.03348   	0.700000	1.62338   	0.700000	1.65228   	0.700000	1.65228   	0.700000	1.62047   	0.700000	0.00290523	
0.800000	3.98391   	0.800000	1.6197    	0.800000	1.63846   	0.800000	1.63846   	0.800000	1.61709   	0.800000	0.00260728	
0.900000	3.91711   	0.900000	1.60917   	0.900000	1.62036   	0.900000	1.62036   	0.900000	1.6068    	0.900000	0.00236871	
1.000000	3.8401    	1.000000	1.59396   	1.000000	1.59946   	1.000000	1.59946   	1.000000	1.59179   	1.000000	0.002173  	
1.250000	3.62039   	1.250000	1.54427   	1.250000	1.54088   	1.250000	1.54088   	1.250000	1.54246   	1.250000	0.00180814	
1.500000	3.4008    	1.500000	1.48736   	1.500000	1.47119   	1.500000	1.47119   	1.500000	1.4858    	1.500000	0.00155426	
1.750000	3.1945    	1.750000	1.42931   	1.750000	1.40753   	1.750000	1.40753   	1.750000	1.42795   	1.750000	0.00136664	
2.000000	2.99813   	2.000000	1.36907   	2.000000	1.34906   	2.000000	1.34906   	2.000000	1.36785   	2.000000	0.00122189	
2.250000	2.82686   	2.250000	1.31306   	2.250000	1.29515   	2.250000	1.29515   	2.250000	1.31195   	2.250000	0.00110658	
2.500000	2.72326   	2.500000	1.26143   	2.500000	1.24531   	2.500000	1.24531   	2.500000	1.26041   	2.500000	0.00101238	
3.000000	2.44881   	3.000000	1.1655    	3.000000	1.15641   	3.000000	1.15641   	3.000000	1.16463   	3.000000	0.000867394	
3.500000	2.22644   	3.500000	1.0847    	3.500000	1.07972   	3.500000	1.07972   	3.500000	1.08394   	3.500000	0.000760687	
4.000000	2.04279   	4.000000	1.01666   	4.000000	1.01308   	4.000000	1.01308   	4.000000	1.01599   	4.000000	0.000678642	
4.500000	1.88858   	4.500000	0.958102  	4.500000	0.954743  	4.500000	0.954743  	4.500000	0.957489  	4.500000	0.000613463	
5.000000	1.75723   	5.000000	0.906802  	5.000000	0.903283  	5.000000	0.903283  	5.000000	0.906242  	5.000000	0.000560349	
5.500000	1.64399   	5.500000	0.861494  	5.500000	0.857568  	5.500000	0.857568  	5.500000	0.860978  	5.500000	0.000516178	
6.000000	1.54531   	6.000000	0.82114   	6.000000	0.816689  	6.000000	0.816689  	6.000000	0.820661  	6.000000	0.000478828	
6.500000	1.45852   	6.500000	0.784907  	6.500000	0.779913  	6.500000	0.779913  	6.500000	0.784461  	6.500000	0.000446806	
7.000000	1.38158   	7.000000	0.752157  	7.000000	0.746643  	7.000000	0.746643  	7.000000	0.751738  	7.000000	0.000419027	
7.500000	1.31289   	7.500000	0.722383  	7.500000	0.716394  	7.500000	0.716394  	7.500000	0.721989  	7.500000	0.000394686	
8.000000	1.25116   	8.000000	0.69518   	8.000000	0.688765  	8.000000	0.688765  	8.000000	0.694807  	8.000000	0.00037317	
8.500000	1.19537   	8.500000	0.670215  	8.500000	0.663423  	8.500000	0.663423  	8.500000	0.669861  	8.500000	0.000354005	
9.000000	1.1447    	9.000000	0.647213  	9.000000	0.640088  	9.000000	0.640088  	9.000000	0.646876  	9.000000	0.000336819	
9.500000	1.09846   	9.500000	0.625943  	9.500000	0.618526  	9.500000	0.618526  	9.500000	0.625621  	9.500000	0.000321315	
10.000000	1.05609   	10.000000	0.610226  	10.000000	0.598537  	10.000000	0.598537  	10.000000	0.609918  	10.000000	0.000307253	
11.000000	0.981138  	11.000000	0.578175  	11.000000	0.564766  	11.000000	0.565842  	11.000000	0.577892  	11.000000	0.000282706	
12.000000	0.916871  	12.000000	0.548967  	12.000000	0.534994  	12.000000	0.536806  	12.000000	0.548705  	12.000000	0.00026198	
13.000000	0.861129  	13.000000	0.522394  	13.000000	0.508559  	13.000000	0.510867  	13.000000	0.522149  	13.000000	0.000244233	
14.000000	0.8123    	14.000000	0.498206  	14.000000	0.484922  	14.000000	0.487555  	14.000000	0.497977  	14.000000	0.000228855	
15.000000	0.769156  	15.000000	0.476151  	15.000000	0.463651  	15.000000	0.46649   	15.000000	0.475935  	15.000000	0.000215395	
16.000000	0.730746  	16.000000	0.455994  	16.000000	0.444398  	16.000000	0.447361  	16.000000	0.455791  	16.000000	0.000203509	
17.000000	0.69632   	17.000000	0.437524  	17.000000	0.426887  	17.000000	0.429914  	17.000000	0.437331  	17.000000	0.000192931	
18.000000	0.665281  	18.000000	0.420553  	18.000000	0.410897  	18.000000	0.413934  	18.000000	0.42037   	18.000000	0.000183453	
19.000000	0.637145  	19.000000	0.404916  	19.000000	0.396232  	19.000000	0.399242  	19.000000	0.404741  	19.000000	0.000174909	
20.000000	0.611517  	20.000000	0.390468  	20.000000	0.382718  	20.000000	0.385687  	20.000000	0.390301  	20.000000	0.000167166	
21.000000	0.588071  	21.000000	0.377085  	21.000000	0.370153  	21.000000	0.373073  	21.000000	0.376925  	21.000000	0.000160113	
22.000000	0.566537  	22.000000	0.364657  	22.000000	0.358497  	22.000000	0.361356  	22.000000	0.364503  	22.000000	0.000153661	
23.000000	0.546685  	23.000000	0.353087  	23.000000	0.347736  	23.000000	0.35052   	23.000000	0.352939  	23.000000	0.000147735	
24.000000	0.528323  	24.000000	0.342291  	24.000000	0.337719  	24.000000	0.340408  	24.000000	0.342149  	24.000000	0.000142273	
25.000000	0.511287  	25.000000	0.332196  	25.000000	0.32837   	25.000000	0.330951  	25.000000	0.332058  	25.000000	0.00013722	
27.000000	0.480647  	27.000000	0.313854  	27.000000	0.311397  	27.000000	0.313756  	27.000000	0.313725  	27.000000	0.000128169	
29.000000	0.453854  	29.000000	0.297625  	29.000000	0.296376  	29.000000	0.298526  	29.000000	0.297505  	29.000000	0.000120292	
31.000000	0.430215  	31.000000	0.283167  	31.000000	0.282502  	31.000000	0.284365  	31.000000	0.283053  	31.000000	0.000113372	
33.000000	0.409196  	33.000000	0.270204  	33.000000	0.269623  	33.000000	0.271174  	33.000000	0.270097  	33.000000	0.000107241	
35.000000	0.390377  	35.000000	0.258517  	35.000000	0.258053  	35.000000	0.259332  	35.000000	0.258415  	35.000000	0.00010177	
38.000000	0.365563  	38.000000	0.242994  	38.000000	0.242744  	38.000000	0.243669  	38.000000	0.2429    	38.000000	9.45806e-05	
41.000000	0.344094  	41.000000	0.229465  	41.000000	0.229396  	41.000000	0.230067  	41.000000	0.229377  	41.000000	8.83841e-05	
44.000000	0.325326  	44.000000	0.217568  	44.000000	0.217665  	44.000000	0.218135  	44.000000	0.217485  	44.000000	8.29849e-05	
47.000000	0.308772  	47.000000	0.207022  	47.000000	0.207284  	47.000000	0.207576  	47.000000	0.206944  	47.000000	7.82363e-05	
50.000000	0.294054  	50.000000	0.197608  	50.000000	0.197998  	50.000000	0.198161  	50.000000	0.197534  	50.000000	7.40255e-05	
55.000000	0.272834  	55.000000	0.183976  	55.000000	0.184528  	55.000000	0.184536  	55.000000	0.183908  	55.000000	6.79729e-05	
60.000000	0.254899  	60.000000	0.172405  	60.000000	0.173092  	60.000000	0.172974  	60.000000	0.172342  	60.000000	6.2875e-05	
65.000000	0.239528  	65.000000	0.162457  	65.000000	0.163254  	65.000000	0.16303   	65.000000	0.162398  	65.000000	5.85196e-05	
70.000000	0.226199  	70.000000	0.153809  	70.000000	0.154665  	70.000000	0.15438   	70.000000	0.153755  	70.000000	5.47532e-05	
75.000000	0.214523  	75.000000	0.146221  	75.000000	0.147135  	75.000000	0.146784  	75.000000	0.14617   	75.000000	5.14623e-05	
80.000000	0.204204  	80.000000	0.139507  	80.000000	0.140443  	80.000000	0.140056  	80.000000	0.139458  	80.000000	4.85611e-05	
85.000000	0.195014  	85.000000	0.133523  	85.000000	0.134469  	85.000000	0.134054  	85.000000	0.133477  	85.000000	4.59832e-05	
90.000000	0.186774  	90.000000	0.128154  	90.000000	0.129103  	90.000000	0.128664  	90.000000	0.128111  	90.000000	4.36767e-05	
95.000000	0.17934   	95.000000	0.123311  	95.000000	0.124255  	95.000000	0.123795  	95.000000	0.123269  	95.000000	4.16003e-05	
100.000000	0.172598  	100.000000	0.118918  	100.000000	0.119853  	100.000000	0.119375  	100.000000	0.118878  	100.000000	3.97206e-05	
105.000000	0.166452  	105.000000	0.114914  	105.000000	0.115837  	105.000000	0.115344  	105.000000	0.114876  	105.000000	3.80107e-05	
110.000000	0.160826  	110.000000	0.111251  	110.000000	0.112157  	110.000000	0.111652  	110.000000	0.111215  	110.000000	3.64482e-05	
115.000000	0.155654  	115.000000	0.107886  	115.000000	0.108773  	115.000000	0.108257  	115.000000	0.107851  	115.000000	3.50145e-05	
120.000000	0.150882  	120.000000	0.104783  	120.000000	0.105652  	120.000000	0.105124  	120.000000	0.10475   	120.000000	3.36941e-05	
125.000000	0.146465  	125.000000	0.101914  	125.000000	0.102758  	125.000000	0.102224  	125.000000	0.101881  	125.000000	3.24739e-05	
130.000000	0.142364  	130.000000	0.0992516 	130.000000	0.10006   	130.000000	0.0995325 	130.000000	0.0992203 	130.000000	3.13428e-05	
135.000000	0.138544  	135.000000	0.096775  	135.000000	0.0975595 	135.000000	0.0970266 	135.000000	0.0967447 	135.000000	3.02911e-05	
140.000000	0.134978  	140.000000	0.0944652 	140.000000	0.0952305 	140.000000	0.094688  	140.000000	0.0944359 	140.000000	2.93108e-05	
145.000000	0.131639  	145.000000	0.0923056 	145.000000	0.093045  	145.000000	0.0925003 	145.000000	0.0922772 	145.000000	2.83946e-05	
150.000000	0.128507  	150.000000	0.0902821 	150.000000	0.0909881 	150.000000	0.0904493 	150.000000	0.0902546 	150.000000	2.75364e-05	
155.000000	0.124097  	155.000000	0.0883821 	155.000000	0.0890643 	155.000000	0.0885227 	155.000000	0.0883554 	155.000000	2.67308e-05	
160.000000	0.121512  	160.000000	0.0865946 	160.000000	0.087254  	160.000000	0.0867093 	160.000000	0.0865687 	160.000000	2.5973e-05	
165.000000	0.119074  	165.000000	0.0849099 	165.000000	0.0855386 	165.000000	0.0849996 	165.000000	0.0848846 	165.000000	2.52588e-05	
170.000000	0.116771  	170.000000	0.0833193 	170.000000	0.0839239 	170.000000	0.0833847 	170.000000	0.0832947 	170.000000	2.45845e-05	
175.000000	0.114592  	175.000000	0.081815  	175.000000	0.0824004 	175.000000	0.0818572 	175.000000	0.0817911 	175.000000	2.39468e-05	
180.000000	0.112527  	180.000000	0.0803904 	180.000000	0.0809508 	180.000000	0.08041   	180.000000	0.080367  	180.000000	2.33427e-05	
185.000000	0.110567  	185.000000	0.0790391 	185.000000	0.0795716 	185.000000	0.0790371 	185.000000	0.0790163 	185.000000	2.27697e-05	
190.000000	0.108704  	190.000000	0.0777557 	190.000000	0.0782624 	190.000000	0.0777329 	190.000000	0.0777334 	190.000000	2.22253e-05	
195.000000	0.106931  	195.000000	0.0765351 	195.000000	0.0770218 	195.000000	0.0764924 	195.000000	0.0765134 	195.000000	2.17075e-05	
200.000000	0.105242  	200.000000	0.0753729 	200.000000	0.0758435 	200.000000	0.075311  	200.000000	0.0753517 	200.000000	2.12142e-05	
210.000000	0.102092  	210.000000	0.0732076 	210.000000	0.0736377 	210.000000	0.0731098 	210.000000	0.0731873 	210.000000	2.02948e-05	
220.000000	0.0992127 	220.000000	0.0712314 	220.000000	0.0716197 	220.000000	0.0711007 	220.000000	0.071212  	220.000000	1.94549e-05	
230.000000	0.0965706 	230.000000	0.0694207 	230.000000	0.0697813 	230.000000	0.0692598 	230.000000	0.069402  	230.000000	1.86846e-05	
240.000000	0.0941373 	240.000000	0.0677555 	240.000000	0.0680852 	240.000000	0.0675671 	240.000000	0.0677375 	240.000000	1.79753e-05	
250.000000	0.0918889 	250.000000	0.0662191 	250.000000	0.0665171 	250.000000	0.0660058 	250.000000	0.0662018 	250.000000	1.73201e-05	
260.000000	0.0898051 	260.000000	0.0647972 	260.000000	0.0650663 	260.000000	0.0645613 	260.000000	0.0647805 	260.000000	1.67129e-05	
270.000000	0.0878684 	270.000000	0.0634777 	270.000000	0.0637227 	270.000000	0.0632214 	270.000000	0.0634615 	270.000000	1.61485e-05	
280.000000	0.0860637 	280.000000	0.0622499 	280.000000	0.0624789 	280.000000	0.0619752 	280.000000	0.0622343 	280.000000	1.56225e-05	
290.000000	0.084378  	290.000000	0.0611048 	290.000000	0.0613132 	290.000000	0.0608135 	290.000000	0.0610896 	290.000000	1.51311e-05	
300.000000	0.0827999 	300.000000	0.0600343 	300.000000	0.0602223 	300.000000	0.0597282 	300.000000	0.0600196 	300.000000	1.46708e-05	
310.000000	0.0813196 	310.000000	0.0590316 	310.000000	0.0592023 	310.000000	0.0587124 	310.000000	0.0590173 	310.000000	1.42389e-05	
320.000000	0.0799283 	320.000000	0.0580904 	320.000000	0.0582454 	320.000000	0.0577596 	320.000000	0.0580766 	320.000000	1.38327e-05	
330.000000	0.0786182 	330.000000	0.0572055 	330.000000	0.0573452 	330.000000	0.0568645 	330.000000	0.0571921 	330.000000	1.34499e-05	
340.000000	0.0773826 	340.000000	0.056372  	340.000000	0.0565001 	340.000000	0.056022  	340.000000	0.056359  	340.000000	1.30887e-05	
350.000000	0.0762153 	350.000000	0.0555858 	350.000000	0.0557075 	350.000000	0.055228  	350.000000	0.055573  	350.000000	1.27471e-05	
360.000000	0.0751109 	360.000000	0.0548429 	360.000000	0.0549575 	360.000000	0.0544785 	360.000000	0.0548304 	360.000000	1.24235e-05	
370.000000	0.0740646 	370.000000	0.05414   	370.000000	0.054245  	370.000000	0.0537701 	370.000000	0.0541279 	370.000000	1.21167e-05	
380.000000	0.073072  	380.000000	0.053474  	380.000000	0.0535707 	380.000000	0.0530995 	380.000000	0.0534622 	380.000000	1.18253e-05	
390.000000	0.0721292 	390.000000	0.0528423 	390.000000	0.0529323 	390.000000	0.0524641 	390.000000	0.0528308 	390.000000	1.15481e-05	
400.000000	0.0712326 	400.000000	0.0522423 	400.000000	0.0523264 	400.000000	0.0518612 	400.000000	0.052231  	400.000000	1.12841e-05	
410.000000	0.0703791 	410.000000	0.0516718 	410.000000	0.0517508 	410.000000	0.0512886 	410.000000	0.0516608 	410.000000	1.10324e-05	
420.000000	0.0695655 	420.000000	0.0511288 	420.000000	0.0512035 	420.000000	0.0507442 	420.000000	0.051118  	420.000000	1.07921e-05	
430.000000	0.0687894 	430.000000	0.0506113 	430.000000	0.0506827 	430.000000	0.050226  	430.000000	0.0506007 	430.000000	1.05625e-05	
440.000000	0.0680483 	440.000000	0.0501178 	440.000000	0.0501867 	440.000000	0.0497324 	440.000000	0.0501074 	440.000000	1.03429e-05	
450.000000	0.06734   	450.000000	0.0496466 	450.000000	0.0497134 	450.000000	0.0492617 	450.000000	0.0496365 	450.000000	1.01326e-05	
460.000000	0.0666624 	460.000000	0.0491964 	460.000000	0.0492613 	460.000000	0.0488125 	460.000000	0.0491865 	460.000000	9.93095e-06	
470.000000	0.0660138 	470.000000	0.0487659 	470.000000	0.0488297 	470.000000	0.0483834 	470.000000	0.0487562 	470.000000	9.73752e-06	
480.000000	0.0653922 	480.000000	0.0483539 	480.000000	0.0484198 	480.000000	0.0479744 	480.000000	0.0483443 	480.000000	9.55179e-06	
490.000000	0.0647963 	490.000000	0.0479592 	490.000000	0.0480302 	490.000000	0.0475841 	490.000000	0.0479499 	490.000000	9.3733e-06	
500.000000	0.0642244 	500.000000	0.047581  	500.000000	0.0476569 	500.000000	0.0472103 	500.000000	0.0475718 	500.000000	9.20162e-06	
520.000000	0.0631479 	520.000000	0.0468699 	520.000000	0.046952  	520.000000	0.0465088 	520.000000	0.046861  	520.000000	8.87718e-06	
540.000000	0.0621529 	540.000000	0.046214  	540.000000	0.0463019 	540.000000	0.045863  	540.000000	0.0462054 	540.000000	8.57569e-06	
560.000000	0.0612312 	560.000000	0.0456076 	560.000000	0.0457027 	560.000000	0.0452672 	560.000000	0.0455993 	560.000000	8.29479e-06	
580.000000	0.0603756 	580.000000	0.0450457 	580.000000	0.0451485 	580.000000	0.0447163 	580.000000	0.0450376 	580.000000	8.0324e-06	
600.000000	0.0595798 	600.000000	0.0445239 	600.000000	0.0446349 	600.000000	0.0442058 	600.000000	0.0445161 	600.000000	7.78673e-06	
620.000000	0.0588383 	620.000000	0.0440386 	620.000000	0.0441581 	620.000000	0.0437319 	620.000000	0.044031  	620.000000	7.5562e-06	
640.000000	0.0581463 	640.000000	0.0435863 	640.000000	0.0437147 	640.000000	0.0432913 	640.000000	0.0435789 	640.000000	7.33945e-06	
660.000000	0.0574995 	660.000000	0.0431642 	660.000000	0.0433017 	660.000000	0.042881  	660.000000	0.0431571 	660.000000	7.13526e-06	
680.000000	0.0568941 	680.000000	0.0427697 	680.000000	0.0429165 	680.000000	0.0424982 	680.000000	0.0427627 	680.000000	6.94255e-06	
700.000000	0.0563268 	700.000000	0.0424004 	700.000000	0.0425567 	700.000000	0.0421407 	700.000000	0.0423937 	700.000000	6.76037e-06	
