*Energy (MeV/u)1	0 - [He-base] F.Hubert et al, AD&ND Tables 46(1990)1	Energy (MeV/u)2	1 - [H -base] J.F.Ziegler et al, Pergamon Press, NY (low energy)	Energy (MeV/u)3	2 - ATIMA 1.2  LS-theory (recommended for high energy)	Energy (MeV/u)4	3 - ATIMA 1.2  without LS-correction	Energy (MeV/u)5	4 - electrical component of [1] - J.F.Ziegler et al	Energy (MeV/u)6	5 - nuclear component of [1] - J.F.Ziegler et al	
0.001000	0.259459  	0.001000	0.054452  	0.001000	0.0576027 	0.001000	0.0576027 	0.001000	0.0390255 	0.001000	0.0154264
0.002000	0.301249  	0.002000	0.0715454 	0.002000	0.0740548 	0.002000	0.0740548 	0.002000	0.0571367 	0.002000	0.0144086
0.005000	0.422041  	0.005000	0.105956  	0.005000	0.105689  	0.005000	0.105689  	0.005000	0.0945763 	0.005000	0.0113802
0.008000	0.523867  	0.008000	0.131935  	0.008000	0.128751  	0.008000	0.128751  	0.008000	0.122475  	0.008000	0.00945945
0.010000	0.584502  	0.010000	0.147013  	0.010000	0.141918  	0.010000	0.141918  	0.010000	0.138468  	0.010000	0.0085454
0.015000	0.686235  	0.015000	0.180021  	0.015000	0.170307  	0.015000	0.170307  	0.015000	0.173061  	0.015000	0.00695952
0.020000	0.766028  	0.020000	0.208658  	0.020000	0.194546  	0.020000	0.194546  	0.020000	0.202729  	0.020000	0.00592911
0.025000	0.852847  	0.025000	0.23347   	0.025000	0.215827  	0.025000	0.215827  	0.025000	0.228273  	0.025000	0.00519727
0.030000	0.92324   	0.030000	0.254709  	0.030000	0.25552   	0.030000	0.25552   	0.030000	0.250063  	0.030000	0.00464633
0.035000	0.979548  	0.035000	0.275026  	0.035000	0.281452  	0.035000	0.281452  	0.035000	0.270812  	0.035000	0.0042142
0.040000	1.02275   	0.040000	0.293144  	0.040000	0.299825  	0.040000	0.299825  	0.040000	0.289279  	0.040000	0.00386478
0.045000	1.05353   	0.045000	0.309433  	0.045000	0.31487   	0.045000	0.31487   	0.045000	0.305858  	0.045000	0.00357548
0.050000	1.07277   	0.050000	0.324412  	0.050000	0.328335  	0.050000	0.328335  	0.050000	0.321081  	0.050000	0.00333143
0.055000	1.11545   	0.055000	0.338134  	0.055000	0.3408    	0.055000	0.3408    	0.055000	0.335011  	0.055000	0.00312237
0.060000	1.15094   	0.060000	0.350673  	0.060000	0.352425  	0.060000	0.352425  	0.060000	0.347732  	0.060000	0.00294098
0.070000	1.20264   	0.070000	0.372524  	0.070000	0.373277  	0.070000	0.373277  	0.070000	0.369883  	0.070000	0.00264107
0.080000	1.25806   	0.080000	0.390552  	0.080000	0.390999  	0.080000	0.390999  	0.080000	0.388172  	0.080000	0.00238023
0.090000	1.29801   	0.090000	0.405343  	0.090000	0.405839  	0.090000	0.405839  	0.090000	0.403155  	0.090000	0.00218766
0.100000	1.32749   	0.100000	0.417341  	0.100000	0.418058  	0.100000	0.418058  	0.100000	0.415314  	0.100000	0.00202677
0.120000	1.34622   	0.120000	0.43872   	0.120000	0.435878  	0.120000	0.435878  	0.120000	0.436948  	0.120000	0.00177245
0.140000	1.34947   	0.140000	0.454496  	0.140000	0.446809  	0.140000	0.446809  	0.140000	0.452917  	0.140000	0.00157973
0.160000	1.34958   	0.160000	0.466274  	0.160000	0.452794  	0.160000	0.452794  	0.160000	0.464846  	0.160000	0.00142811
0.180000	1.34793   	0.180000	0.472859  	0.180000	0.455316  	0.180000	0.455316  	0.180000	0.471554  	0.180000	0.00130538
0.200000	1.3515    	0.200000	0.477627  	0.200000	0.455465  	0.200000	0.455465  	0.200000	0.476423  	0.200000	0.00120378
0.250000	1.32384   	0.250000	0.480471  	0.250000	0.450013  	0.250000	0.450013  	0.250000	0.479459  	0.250000	0.00101206
0.300000	1.31952   	0.300000	0.492858  	0.300000	0.443589  	0.300000	0.443589  	0.300000	0.491982  	0.300000	0.000876772
0.350000	1.30418   	0.350000	0.496209  	0.350000	0.436967  	0.350000	0.436967  	0.350000	0.495433  	0.350000	0.000775715
0.400000	1.28216   	0.400000	0.496234  	0.400000	0.428918  	0.400000	0.428918  	0.400000	0.495536  	0.400000	0.00069709
0.450000	1.25319   	0.450000	0.491591  	0.450000	0.41959   	0.450000	0.41959   	0.450000	0.490957  	0.450000	0.000634015
0.500000	1.22501   	0.500000	0.486834  	0.500000	0.410561  	0.500000	0.410561  	0.500000	0.486252  	0.500000	0.00058219
0.600000	1.12423   	0.600000	0.475732  	0.600000	0.39371   	0.600000	0.39371   	0.600000	0.47523   	0.600000	0.000501852
0.700000	1.02332   	0.700000	0.45814   	0.700000	0.378424  	0.700000	0.378424  	0.700000	0.457698  	0.700000	0.000442257
0.800000	0.978731  	0.800000	0.453424  	0.800000	0.364474  	0.800000	0.364474  	0.800000	0.453028  	0.800000	0.000396144
0.900000	0.931224  	0.900000	0.444119  	0.900000	0.351631  	0.900000	0.351631  	0.900000	0.443759  	0.900000	0.000359318
1.000000	0.884073  	1.000000	0.429909  	1.000000	0.338795  	1.000000	0.338795  	1.000000	0.42958   	1.000000	0.000329174
1.250000	0.775927  	1.250000	0.387771  	1.250000	0.311253  	1.250000	0.311253  	1.250000	0.387498  	1.250000	0.000273146
1.500000	0.673677  	1.500000	0.320427  	1.500000	0.288373  	1.500000	0.288373  	1.500000	0.320193  	1.500000	0.000234299
1.750000	0.598738  	1.750000	0.28044   	1.750000	0.268572  	1.750000	0.268572  	1.750000	0.280234  	1.750000	0.000205667
2.000000	0.540792  	2.000000	0.253926  	2.000000	0.25119   	2.000000	0.25119   	2.000000	0.253742  	2.000000	0.000183627
2.250000	0.495043  	2.250000	0.234448  	2.250000	0.235751  	2.250000	0.235751  	2.250000	0.234282  	2.250000	0.0001661
2.500000	0.441819  	2.500000	0.21905   	2.500000	0.222007  	2.500000	0.222007  	2.500000	0.218899  	2.500000	0.000151805
3.000000	0.388211  	3.000000	0.195297  	3.000000	0.198766  	3.000000	0.198766  	3.000000	0.195167  	3.000000	0.000129843
3.500000	0.3469    	3.500000	0.177168  	3.500000	0.180035  	3.500000	0.180035  	3.500000	0.177054  	3.500000	0.000113713
4.000000	0.314035  	4.000000	0.162607  	4.000000	0.164729  	4.000000	0.164729  	4.000000	0.162506  	4.000000	0.000101333
4.500000	0.287231  	4.500000	0.150581  	4.500000	0.152043  	4.500000	0.152043  	4.500000	0.15049   	4.500000	9.15119e-05
5.000000	0.264927  	5.000000	0.140459  	5.000000	0.141382  	5.000000	0.141382  	5.000000	0.140375  	5.000000	8.35183e-05
5.500000	0.24606   	5.500000	0.131811  	5.500000	0.132305  	5.500000	0.132305  	5.500000	0.131734  	5.500000	7.68778e-05
6.000000	0.229882  	6.000000	0.124331  	6.000000	0.124487  	6.000000	0.124487  	6.000000	0.12426   	6.000000	7.1268e-05
6.500000	0.215845  	6.500000	0.117791  	6.500000	0.117679  	6.500000	0.117679  	6.500000	0.117725  	6.500000	6.64623e-05
7.000000	0.203545  	7.000000	0.112021  	7.000000	0.111694  	7.000000	0.111694  	7.000000	0.111958  	7.000000	6.22966e-05
7.500000	0.192673  	7.500000	0.106886  	7.500000	0.106387  	7.500000	0.106387  	7.500000	0.106827  	7.500000	5.86489e-05
8.000000	0.18299   	8.000000	0.102283  	8.000000	0.101646  	8.000000	0.101646  	8.000000	0.102228  	8.000000	5.54265e-05
8.500000	0.174307  	8.500000	0.0981311 	8.500000	0.0973814 	8.500000	0.0973814 	8.500000	0.0980785 	8.500000	5.2558e-05
9.000000	0.166474  	9.000000	0.0943629 	9.000000	0.0935209 	9.000000	0.0935209 	9.000000	0.0943129 	9.000000	4.9987e-05
9.500000	0.159371  	9.500000	0.0909253 	9.500000	0.0900072 	9.500000	0.0900072 	9.500000	0.0908776 	9.500000	4.76687e-05
10.000000	0.152898  	10.000000	0.0883561 	10.000000	0.0867933 	10.000000	0.0867933 	10.000000	0.0883105 	10.000000	4.55671e-05
11.000000	0.14153   	11.000000	0.0832688 	11.000000	0.081331  	11.000000	0.0813514 	11.000000	0.0832269 	11.000000	4.19006e-05
12.000000	0.131863  	12.000000	0.0787318 	12.000000	0.0766335 	12.000000	0.0766669 	12.000000	0.078693  	12.000000	3.88073e-05
13.000000	0.123537  	13.000000	0.0746726 	13.000000	0.0725422 	13.000000	0.0725833 	13.000000	0.0746365 	13.000000	3.61603e-05
14.000000	0.116287  	14.000000	0.071026  	14.000000	0.068941  	14.000000	0.0689852 	14.000000	0.0709922 	14.000000	3.38683e-05
15.000000	0.109913  	15.000000	0.067736  	15.000000	0.0657419 	15.000000	0.065786  	15.000000	0.0677041 	15.000000	3.18631e-05
16.000000	0.104263  	16.000000	0.0647548 	16.000000	0.0628762 	16.000000	0.0629196 	16.000000	0.0647247 	16.000000	3.00932e-05
17.000000	0.0992183 	17.000000	0.0620422 	17.000000	0.0602914 	17.000000	0.0603338 	17.000000	0.0620137 	17.000000	2.85189e-05
18.000000	0.0946851 	18.000000	0.0595644 	18.000000	0.0579477 	18.000000	0.0579873 	18.000000	0.0595372 	18.000000	2.7109e-05
19.000000	0.090588  	19.000000	0.0572924 	19.000000	0.0558105 	19.000000	0.0558468 	19.000000	0.0572666 	19.000000	2.58385e-05
20.000000	0.0868659 	20.000000	0.055202  	20.000000	0.0538502 	20.000000	0.053885  	20.000000	0.0551773 	20.000000	2.46875e-05
21.000000	0.0834687 	21.000000	0.0532724 	21.000000	0.0520422 	21.000000	0.0520759 	21.000000	0.0532487 	21.000000	2.36396e-05
22.000000	0.0803549 	22.000000	0.0514857 	22.000000	0.0503747 	22.000000	0.0504042 	22.000000	0.0514631 	22.000000	2.26812e-05
23.000000	0.0774897 	23.000000	0.0498268 	23.000000	0.0488346 	23.000000	0.0488582 	23.000000	0.049805  	23.000000	2.18012e-05
24.000000	0.0748442 	24.000000	0.0482823 	24.000000	0.0474014 	24.000000	0.0474206 	24.000000	0.0482613 	24.000000	2.09903e-05
25.000000	0.0723934 	25.000000	0.0468408 	25.000000	0.0460633 	25.000000	0.04608   	25.000000	0.0468205 	25.000000	2.02404e-05
27.000000	0.0679946 	27.000000	0.0442279 	27.000000	0.0436402 	27.000000	0.0436518 	27.000000	0.044209  	27.000000	1.88977e-05
29.000000	0.0641571 	29.000000	0.0419221 	29.000000	0.0415046 	29.000000	0.0415096 	29.000000	0.0419044 	29.000000	1.77298e-05
31.000000	0.060778  	31.000000	0.0398719 	31.000000	0.0395497 	31.000000	0.0395483 	31.000000	0.0398552 	31.000000	1.67041e-05
33.000000	0.0577785 	33.000000	0.0380367 	33.000000	0.0377494 	33.000000	0.0377422 	33.000000	0.0380209 	33.000000	1.57958e-05
35.000000	0.055097  	35.000000	0.0363841 	35.000000	0.0361307 	35.000000	0.0361185 	35.000000	0.0363692 	35.000000	1.49855e-05
38.000000	0.0515664 	38.000000	0.0341917 	38.000000	0.0339853 	38.000000	0.033967  	38.000000	0.0341778 	38.000000	1.39214e-05
41.000000	0.0485166 	41.000000	0.032283  	41.000000	0.0321187 	41.000000	0.0320952 	41.000000	0.03227   	41.000000	1.30045e-05
44.000000	0.0458538 	44.000000	0.0306057 	44.000000	0.030478  	44.000000	0.0304506 	44.000000	0.0305935 	44.000000	1.2206e-05
47.000000	0.0435075 	47.000000	0.0291199 	47.000000	0.0290248 	47.000000	0.0289931 	47.000000	0.0291084 	47.000000	1.1504e-05
50.000000	0.0414235 	50.000000	0.027794  	50.000000	0.0277231 	50.000000	0.0276918 	50.000000	0.0277832 	50.000000	1.08818e-05
55.000000	0.0384215 	55.000000	0.0258749 	55.000000	0.0258389 	55.000000	0.0258059 	55.000000	0.0258649 	55.000000	9.98772e-06
60.000000	0.0358868 	60.000000	0.0242466 	60.000000	0.0242385 	60.000000	0.024203  	60.000000	0.0242373 	60.000000	9.23508e-06
65.000000	0.0337162 	65.000000	0.0228469 	65.000000	0.0228571 	65.000000	0.0228226 	65.000000	0.0228383 	65.000000	8.59234e-06
70.000000	0.0318351 	70.000000	0.0216304 	70.000000	0.0216585 	70.000000	0.0216206 	70.000000	0.0216224 	70.000000	8.03676e-06
75.000000	0.030188  	75.000000	0.0205631 	75.000000	0.0205999 	75.000000	0.020564  	75.000000	0.0205555 	75.000000	7.55151e-06
80.000000	0.028733  	80.000000	0.0196187 	80.000000	0.0196648 	80.000000	0.0196273 	80.000000	0.0196116 	80.000000	7.12386e-06
85.000000	0.0274377 	85.000000	0.0187771 	85.000000	0.0188267 	85.000000	0.0187911 	85.000000	0.0187703 	85.000000	6.74399e-06
90.000000	0.0262766 	90.000000	0.0180221 	90.000000	0.0180766 	90.000000	0.0180396 	90.000000	0.0180157 	90.000000	6.40422e-06
95.000000	0.0252293 	95.000000	0.0173409 	95.000000	0.0173958 	95.000000	0.0173606 	95.000000	0.0173348 	95.000000	6.09842e-06
100.000000	0.0242796 	100.000000	0.0167231 	100.000000	0.0167802 	100.000000	0.0167437 	100.000000	0.0167172 	100.000000	5.82168e-06
105.000000	0.0234142 	105.000000	0.0161601 	105.000000	0.0162158 	105.000000	0.0161809 	105.000000	0.0161545 	105.000000	5.56998e-06
110.000000	0.022622  	110.000000	0.0156449 	110.000000	0.0157008 	110.000000	0.0156652 	110.000000	0.0156396 	110.000000	5.34003e-06
115.000000	0.0218939 	115.000000	0.0151717 	115.000000	0.0152257 	115.000000	0.0151908 	115.000000	0.0151666 	115.000000	5.12909e-06
120.000000	0.0212222 	120.000000	0.0147354 	120.000000	0.0147875 	120.000000	0.014753  	120.000000	0.0147304 	120.000000	4.93487e-06
125.000000	0.0206005 	125.000000	0.0143318 	125.000000	0.0143828 	125.000000	0.0143476 	125.000000	0.0143271 	125.000000	4.75541e-06
130.000000	0.0200232 	130.000000	0.0139574 	130.000000	0.014005  	130.000000	0.0139712 	130.000000	0.0139529 	130.000000	4.58909e-06
135.000000	0.0194857 	135.000000	0.0136092 	135.000000	0.0136531 	135.000000	0.0136206 	135.000000	0.0136047 	135.000000	4.43448e-06
140.000000	0.0189838 	140.000000	0.0132843 	140.000000	0.0133262 	140.000000	0.0132934 	140.000000	0.01328   	140.000000	4.29037e-06
145.000000	0.018514  	145.000000	0.0129806 	145.000000	0.0130204 	145.000000	0.0129873 	145.000000	0.0129765 	145.000000	4.15573e-06
150.000000	0.0180733 	150.000000	0.0126961 	150.000000	0.0127322 	150.000000	0.0127002 	150.000000	0.0126921 	150.000000	4.02962e-06
155.000000	0.0174528 	155.000000	0.0124289 	155.000000	0.0124627 	155.000000	0.0124305 	155.000000	0.012425  	155.000000	3.91125e-06
160.000000	0.0170891 	160.000000	0.0121775 	160.000000	0.0122091 	160.000000	0.0121766 	160.000000	0.0121737 	160.000000	3.79993e-06
165.000000	0.0167462 	165.000000	0.0119406 	165.000000	0.0119688 	165.000000	0.0119372 	165.000000	0.0119369 	165.000000	3.69502e-06
170.000000	0.0164222 	170.000000	0.0117169 	170.000000	0.0117425 	170.000000	0.011711  	170.000000	0.0117133 	170.000000	3.59599e-06
175.000000	0.0161156 	175.000000	0.0115054 	175.000000	0.011529  	175.000000	0.0114971 	175.000000	0.0115019 	175.000000	3.50235e-06
180.000000	0.0158251 	180.000000	0.011305  	180.000000	0.0113259 	180.000000	0.0112943 	180.000000	0.0113016 	180.000000	3.41366e-06
185.000000	0.0155494 	185.000000	0.011115  	185.000000	0.0111326 	185.000000	0.011102  	185.000000	0.0111117 	185.000000	3.32954e-06
190.000000	0.0152873 	190.000000	0.0109345 	190.000000	0.0109491 	190.000000	0.0109192 	190.000000	0.0109313 	190.000000	3.24963e-06
195.000000	0.015038  	195.000000	0.0107629 	195.000000	0.0107752 	195.000000	0.0107454 	195.000000	0.0107597 	195.000000	3.17362e-06
200.000000	0.0148004 	200.000000	0.0105994 	200.000000	0.0106101 	200.000000	0.0105798 	200.000000	0.0105963 	200.000000	3.10124e-06
210.000000	0.0143573 	210.000000	0.0102949 	210.000000	0.0103007 	210.000000	0.0102713 	210.000000	0.010292  	210.000000	2.96632e-06
220.000000	0.0139523 	220.000000	0.010017  	220.000000	0.0100193 	220.000000	0.00998959	220.000000	0.0100142 	220.000000	2.84311e-06
230.000000	0.0135806 	230.000000	0.00976238	230.000000	0.00976064	230.000000	0.00973147	230.000000	0.00975965	230.000000	2.73011e-06
240.000000	0.0132384 	240.000000	0.00952821	240.000000	0.00952209	240.000000	0.00949411	240.000000	0.00952559	240.000000	2.6261e-06
250.000000	0.0129222 	250.000000	0.00931215	250.000000	0.00930327	250.000000	0.00927513	250.000000	0.00930962	250.000000	2.53002e-06
260.000000	0.0126291 	260.000000	0.0091122 	260.000000	0.00910054	260.000000	0.00907252	260.000000	0.00910976	260.000000	2.441e-06
270.000000	0.0123567 	270.000000	0.00892664	270.000000	0.00891196	270.000000	0.00888454	270.000000	0.00892428	270.000000	2.35827e-06
280.000000	0.0121029 	280.000000	0.00875398	280.000000	0.00873753	280.000000	0.00870971	280.000000	0.0087517 	280.000000	2.28119e-06
290.000000	0.0118658 	290.000000	0.00859294	290.000000	0.00857408	290.000000	0.00854672	290.000000	0.00859073	290.000000	2.20917e-06
300.000000	0.0116439 	300.000000	0.0084424 	300.000000	0.00842094	300.000000	0.00839444	300.000000	0.00844026	300.000000	2.14174e-06
310.000000	0.0114357 	310.000000	0.00830139	310.000000	0.00827807	310.000000	0.00825188	310.000000	0.00829931	310.000000	2.07846e-06
320.000000	0.01124   	320.000000	0.00816904	320.000000	0.00814468	320.000000	0.00811818	320.000000	0.00816702	320.000000	2.01896e-06
330.000000	0.0110558 	330.000000	0.0080446 	330.000000	0.0080189 	330.000000	0.00799255	330.000000	0.00804263	330.000000	1.9629e-06
340.000000	0.010882  	340.000000	0.00792739	340.000000	0.00790001	340.000000	0.00787431	340.000000	0.00792548	340.000000	1.90999e-06
350.000000	0.0107178 	350.000000	0.00781681	350.000000	0.00778798	350.000000	0.00776286	350.000000	0.00781495	350.000000	1.85997e-06
360.000000	0.0105625 	360.000000	0.00771234	360.000000	0.00768277	360.000000	0.00765765	360.000000	0.00771053	360.000000	1.81261e-06
370.000000	0.0104154 	370.000000	0.0076135 	370.000000	0.00758359	370.000000	0.0075582 	370.000000	0.00761173	370.000000	1.76769e-06
380.000000	0.0102758 	380.000000	0.00751985	380.000000	0.00748919	380.000000	0.00746407	380.000000	0.00751812	380.000000	1.72502e-06
390.000000	0.0101432 	390.000000	0.00743101	390.000000	0.00739955	390.000000	0.00737487	390.000000	0.00742933	390.000000	1.68445e-06
400.000000	0.0100171 	400.000000	0.00734663	400.000000	0.007315  	400.000000	0.00729023	400.000000	0.00734499	400.000000	1.64582e-06
410.000000	0.00989709	410.000000	0.0072664 	410.000000	0.00723482	410.000000	0.00720983	410.000000	0.0072648 	410.000000	1.60898e-06
420.000000	0.00978269	420.000000	0.00719004	420.000000	0.0071582 	420.000000	0.00713339	420.000000	0.00718846	420.000000	1.57383e-06
430.000000	0.00967355	430.000000	0.00711727	430.000000	0.00708501	430.000000	0.00706064	430.000000	0.00711573	430.000000	1.54023e-06
440.000000	0.00956933	440.000000	0.00704787	440.000000	0.00701526	440.000000	0.00699132	440.000000	0.00704636	440.000000	1.5081e-06
450.000000	0.00946972	450.000000	0.00698161	450.000000	0.0069489 	450.000000	0.00692523	450.000000	0.00698013	450.000000	1.47733e-06
460.000000	0.00937443	460.000000	0.0069183 	460.000000	0.00688587	460.000000	0.00686215	460.000000	0.00691685	460.000000	1.44784e-06
470.000000	0.0092832 	470.000000	0.00685776	470.000000	0.0068258 	470.000000	0.0068019 	470.000000	0.00685634	470.000000	1.41954e-06
480.000000	0.0091958 	480.000000	0.00679981	480.000000	0.0067684 	480.000000	0.00674447	480.000000	0.00679842	480.000000	1.39238e-06
490.000000	0.00911199	490.000000	0.00674432	490.000000	0.00671337	490.000000	0.00668965	490.000000	0.00674295	490.000000	1.36628e-06
500.000000	0.00903158	500.000000	0.00669112	500.000000	0.00666055	500.000000	0.00663716	500.000000	0.00668978	500.000000	1.34117e-06
520.000000	0.00888019	520.000000	0.00659113	520.000000	0.00656143	520.000000	0.00653864	520.000000	0.00658983	520.000000	1.29373e-06
540.000000	0.00874027	540.000000	0.00649889	540.000000	0.00647079	540.000000	0.00644794	540.000000	0.00649764	540.000000	1.24965e-06
560.000000	0.00861065	560.000000	0.00641361	560.000000	0.00638722	560.000000	0.00636426	560.000000	0.0064124 	560.000000	1.20859e-06
580.000000	0.00849033	580.000000	0.00633459	580.000000	0.00630939	580.000000	0.00628687	580.000000	0.00633342	580.000000	1.17024e-06
600.000000	0.00837842	600.000000	0.00626121	600.000000	0.00623764	600.000000	0.00621517	600.000000	0.00626008	600.000000	1.13434e-06
620.000000	0.00827414	620.000000	0.00619296	620.000000	0.00617128	620.000000	0.00614862	620.000000	0.00619186	620.000000	1.10065e-06
640.000000	0.00817683	640.000000	0.00612936	640.000000	0.00610919	640.000000	0.00608673	640.000000	0.00612829	640.000000	1.06898e-06
660.000000	0.00808587	660.000000	0.00607   	660.000000	0.00605113	660.000000	0.00602908	660.000000	0.00606896	660.000000	1.03915e-06
680.000000	0.00800074	680.000000	0.00601452	680.000000	0.005997  	680.000000	0.00597532	680.000000	0.00601351	680.000000	1.011e-06
700.000000	0.00792096	700.000000	0.0059626 	700.000000	0.00594668	700.000000	0.00592509	700.000000	0.00596161	700.000000	9.84386e-07
720.000000	0.00784612	720.000000	0.00591394	720.000000	0.00589985	720.000000	0.00587813	720.000000	0.00591298	720.000000	9.59191e-07
740.000000	0.00777582	740.000000	0.00586829	740.000000	0.00585596	740.000000	0.00583415	740.000000	0.00586736	740.000000	9.35301e-07
