*Energy (MeV/u)1	0 - [He-base] F.Hubert et al, AD&ND Tables 46(1990)1	Energy (MeV/u)2	1 - [H -base] J.F.Ziegler et al, Pergamon Press, NY (low energy)	Energy (MeV/u)3	2 - ATIMA 1.2  LS-theory (recommended for high energy)	Energy (MeV/u)4	3 - ATIMA 1.2  without LS-correction	Energy (MeV/u)5	4 - electrical component of [1] - J.F.Ziegler et al	Energy (MeV/u)6	5 - nuclear component of [1] - J.F.Ziegler et al	
0.001000	0.205735  	0.001000	0.184793  	0.001000	0.177012  	0.001000	0.177012  	0.001000	0.106742  	0.001000	0.0780509
0.002000	0.227958  	0.002000	0.198644  	0.002000	0.188736  	0.002000	0.188736  	0.002000	0.139866  	0.002000	0.0587775
0.005000	0.281031  	0.005000	0.235981  	0.005000	0.222834  	0.005000	0.222834  	0.005000	0.200111  	0.005000	0.0358698
0.008000	0.322002  	0.008000	0.267283  	0.008000	0.252383  	0.008000	0.252383  	0.008000	0.240572  	0.008000	0.0267115
0.010000	0.345263  	0.010000	0.285617  	0.010000	0.269895  	0.010000	0.269895  	0.010000	0.262578  	0.010000	0.0230392
0.015000	0.403467  	0.015000	0.324777  	0.015000	0.307963  	0.015000	0.307963  	0.015000	0.307481  	0.015000	0.0172959
0.020000	0.449492  	0.020000	0.357643  	0.020000	0.34668   	0.020000	0.34668   	0.020000	0.343606  	0.020000	0.0140377
0.025000	0.499915  	0.025000	0.395118  	0.025000	0.384527  	0.025000	0.384527  	0.025000	0.383203  	0.025000	0.0119151
0.030000	0.542343  	0.030000	0.430138  	0.030000	0.41764   	0.030000	0.41764   	0.030000	0.419742  	0.030000	0.0103957
0.035000	0.572472  	0.035000	0.460752  	0.035000	0.449201  	0.035000	0.449201  	0.035000	0.451503  	0.035000	0.00924855
0.040000	0.594847  	0.040000	0.486944  	0.040000	0.479237  	0.040000	0.479237  	0.040000	0.478595  	0.040000	0.00834866
0.045000	0.610435  	0.045000	0.51116   	0.045000	0.507777  	0.045000	0.507777  	0.045000	0.503538  	0.045000	0.00762189
0.050000	0.619771  	0.050000	0.533475  	0.050000	0.534849  	0.050000	0.534849  	0.050000	0.526453  	0.050000	0.00702141
0.055000	0.642974  	0.055000	0.558522  	0.055000	0.560483  	0.055000	0.560483  	0.055000	0.552006  	0.055000	0.00651608
0.060000	0.662345  	0.060000	0.582121  	0.060000	0.584709  	0.060000	0.584709  	0.060000	0.576037  	0.060000	0.00608436
0.070000	0.690874  	0.070000	0.625066  	0.070000	0.629075  	0.070000	0.629075  	0.070000	0.619681  	0.070000	0.00538416
0.080000	0.722536  	0.080000	0.661839  	0.080000	0.668248  	0.080000	0.668248  	0.080000	0.657     	0.080000	0.00483923
0.090000	0.74616   	0.090000	0.693416  	0.090000	0.702565  	0.090000	0.702565  	0.090000	0.689014  	0.090000	0.00440197
0.100000	0.763882  	0.100000	0.720215  	0.100000	0.732391  	0.100000	0.732391  	0.100000	0.716172  	0.100000	0.00404262
0.120000	0.770032  	0.120000	0.762971  	0.120000	0.780074  	0.120000	0.780074  	0.120000	0.759485  	0.120000	0.00348545
0.140000	0.774276  	0.140000	0.797327  	0.140000	0.814264  	0.140000	0.814264  	0.140000	0.794255  	0.140000	0.00307202
0.160000	0.776095  	0.160000	0.820367  	0.160000	0.837695  	0.160000	0.837695  	0.160000	0.817615  	0.160000	0.00275206
0.180000	0.77802   	0.180000	0.835038  	0.180000	0.852731  	0.180000	0.852731  	0.180000	0.832541  	0.180000	0.00249649
0.200000	0.780901  	0.200000	0.843737  	0.200000	0.861333  	0.200000	0.861333  	0.200000	0.84145   	0.200000	0.00228727
0.250000	0.771689  	0.250000	0.84986   	0.250000	0.864227  	0.250000	0.864227  	0.250000	0.847962  	0.250000	0.00189831
0.300000	0.768683  	0.300000	0.848     	0.300000	0.852457  	0.300000	0.852457  	0.300000	0.846371  	0.300000	0.00162857
0.350000	0.766556  	0.350000	0.842819  	0.350000	0.835369  	0.350000	0.835369  	0.350000	0.84139   	0.350000	0.00142971
0.400000	0.770298  	0.400000	0.843425  	0.400000	0.822532  	0.400000	0.822532  	0.400000	0.842149  	0.400000	0.00127662
0.450000	0.771853  	0.450000	0.843387  	0.450000	0.807013  	0.450000	0.807013  	0.450000	0.842232  	0.450000	0.00115486
0.500000	0.77088   	0.500000	0.841919  	0.500000	0.79052   	0.500000	0.79052   	0.500000	0.840864  	0.500000	0.00105554
0.600000	0.739501  	0.600000	0.818893  	0.600000	0.756735  	0.600000	0.756735  	0.600000	0.81799   	0.600000	0.000902936
0.700000	0.69438   	0.700000	0.784694  	0.700000	0.723938  	0.700000	0.723938  	0.700000	0.783903  	0.700000	0.000790844
0.800000	0.66853   	0.800000	0.744466  	0.800000	0.694285  	0.800000	0.694285  	0.800000	0.743761  	0.800000	0.000704798
0.900000	0.642838  	0.900000	0.707055  	0.900000	0.667307  	0.900000	0.667307  	0.900000	0.706418  	0.900000	0.00063653
1.000000	0.617583  	1.000000	0.671909  	1.000000	0.642569  	1.000000	0.642569  	1.000000	0.671328  	1.000000	0.000580962
1.250000	0.558571  	1.250000	0.610381  	1.250000	0.586741  	1.250000	0.586741  	1.250000	0.609903  	1.250000	0.000478469
1.500000	0.506904  	1.500000	0.557833  	1.500000	0.539495  	1.500000	0.539495  	1.500000	0.557425  	1.500000	0.000408052
1.750000	0.461997  	1.750000	0.512485  	1.750000	0.500074  	1.750000	0.500074  	1.750000	0.512128  	1.750000	0.000356518
2.000000	0.424836  	2.000000	0.475427  	2.000000	0.466274  	2.000000	0.466274  	2.000000	0.47511   	2.000000	0.000317077
2.250000	0.394073  	2.250000	0.441559  	2.250000	0.436826  	2.250000	0.436826  	2.250000	0.441273  	2.250000	0.000285863
2.500000	0.361279  	2.500000	0.412414  	2.500000	0.410894  	2.500000	0.410894  	2.500000	0.412153  	2.500000	0.000260511
3.000000	0.320423  	3.000000	0.363419  	3.000000	0.367308  	3.000000	0.367308  	3.000000	0.363197  	3.000000	0.000221756
3.500000	0.288294  	3.500000	0.326118  	3.500000	0.33214   	3.500000	0.33214   	3.500000	0.325924  	3.500000	0.000193457
4.000000	0.262345  	4.000000	0.296369  	4.000000	0.303211  	4.000000	0.303211  	4.000000	0.296197  	4.000000	0.000171836
4.500000	0.240934  	4.500000	0.27191   	4.500000	0.279026  	4.500000	0.279026  	4.500000	0.271755  	4.500000	0.000154752
5.000000	0.222953  	5.000000	0.251364  	5.000000	0.258524  	5.000000	0.258524  	5.000000	0.251223  	5.000000	0.000140894
5.500000	0.207629  	5.500000	0.234054  	5.500000	0.240926  	5.500000	0.240926  	5.500000	0.233925  	5.500000	0.000129415
6.000000	0.194406  	6.000000	0.219087  	6.000000	0.225659  	6.000000	0.225659  	6.000000	0.218968  	6.000000	0.000119744
6.500000	0.182875  	6.500000	0.206008  	6.500000	0.212289  	6.500000	0.212289  	6.500000	0.205897  	6.500000	0.000111477
7.000000	0.172725  	7.000000	0.194475  	7.000000	0.200483  	7.000000	0.200483  	7.000000	0.194371  	7.000000	0.000104327
7.500000	0.163719  	7.500000	0.184225  	7.500000	0.189979  	7.500000	0.189979  	7.500000	0.184127  	7.500000	9.8078e-05
8.000000	0.155672  	8.000000	0.175053  	8.000000	0.180573  	8.000000	0.180573  	8.000000	0.174961  	8.000000	9.25672e-05
8.500000	0.148435  	8.500000	0.166795  	8.500000	0.172099  	8.500000	0.172099  	8.500000	0.166708  	8.500000	8.76694e-05
9.000000	0.141891  	9.000000	0.15932   	9.000000	0.164423  	9.000000	0.164423  	9.000000	0.159237  	9.000000	8.32863e-05
9.500000	0.135943  	9.500000	0.15252   	9.500000	0.157438  	9.500000	0.157438  	9.500000	0.15244   	9.500000	7.93395e-05
10.000000	0.130511  	10.000000	0.150783  	10.000000	0.151052  	10.000000	0.151052  	10.000000	0.150707  	10.000000	7.57662e-05
11.000000	0.120948  	11.000000	0.139809  	11.000000	0.139663  	11.000000	0.139729  	11.000000	0.13974   	11.000000	6.95433e-05
12.000000	0.112793  	12.000000	0.130413  	12.000000	0.12996   	12.000000	0.130068  	12.000000	0.130349  	12.000000	6.43044e-05
13.000000	0.105752  	13.000000	0.122276  	13.000000	0.121595  	13.000000	0.12173   	13.000000	0.122216  	13.000000	5.98304e-05
14.000000	0.0996084 	14.000000	0.11516   	14.000000	0.114311  	14.000000	0.114463  	14.000000	0.115104  	14.000000	5.5963e-05
15.000000	0.0941984 	15.000000	0.108883  	15.000000	0.107912  	15.000000	0.108074  	15.000000	0.10883   	15.000000	5.25851e-05
16.000000	0.0893962 	16.000000	0.103304  	16.000000	0.102247  	16.000000	0.102414  	16.000000	0.103254  	16.000000	4.96081e-05
17.000000	0.0851032 	17.000000	0.0983113 	17.000000	0.0971992 	17.000000	0.0973682 	17.000000	0.0982643 	17.000000	4.69636e-05
18.000000	0.0812414 	18.000000	0.093817  	18.000000	0.0926754 	18.000000	0.0928421 	18.000000	0.0937724 	18.000000	4.45982e-05
19.000000	0.0777479 	19.000000	0.0897491 	19.000000	0.0885994 	19.000000	0.0887611 	19.000000	0.0897067 	19.000000	4.24693e-05
20.000000	0.0745716 	20.000000	0.0860492 	20.000000	0.0849074 	20.000000	0.085064  	20.000000	0.0860086 	20.000000	4.05427e-05
21.000000	0.0716705 	21.000000	0.0826689 	21.000000	0.0815493 	21.000000	0.0817004 	21.000000	0.0826301 	21.000000	3.87904e-05
22.000000	0.0690098 	22.000000	0.0795682 	22.000000	0.078485  	22.000000	0.0786284 	22.000000	0.079531  	22.000000	3.71894e-05
23.000000	0.0665602 	23.000000	0.0767132 	23.000000	0.0756784 	23.000000	0.0758129 	23.000000	0.0766775 	23.000000	3.57208e-05
24.000000	0.0642972 	24.000000	0.0740757 	24.000000	0.0730976 	24.000000	0.0732243 	24.000000	0.0740413 	24.000000	3.43685e-05
25.000000	0.0621998 	25.000000	0.0716314 	25.000000	0.0707172 	25.000000	0.0708373 	25.000000	0.0715982 	25.000000	3.31191e-05
27.000000	0.0584333 	27.000000	0.0672422 	27.000000	0.0664794 	27.000000	0.0665848 	27.000000	0.0672113 	27.000000	3.08846e-05
29.000000	0.0551452 	29.000000	0.0634116 	29.000000	0.0628289 	29.000000	0.0629158 	29.000000	0.0633827 	29.000000	2.89437e-05
31.000000	0.0522484 	31.000000	0.0600382 	31.000000	0.05959   	31.000000	0.0596571 	31.000000	0.0600109 	31.000000	2.72415e-05
33.000000	0.0496758 	33.000000	0.0570437 	33.000000	0.0566579 	33.000000	0.056709  	33.000000	0.057018  	33.000000	2.57358e-05
35.000000	0.047375  	35.000000	0.054367  	35.000000	0.0540408 	35.000000	0.0540721 	35.000000	0.0543426 	35.000000	2.43942e-05
38.000000	0.0443446 	38.000000	0.0508439 	38.000000	0.0505874 	38.000000	0.0505984 	38.000000	0.0508213 	38.000000	2.26345e-05
41.000000	0.0417258 	41.000000	0.0478022 	41.000000	0.0475998 	41.000000	0.0475961 	41.000000	0.0477811 	41.000000	2.11205e-05
44.000000	0.0394387 	44.000000	0.0451483 	44.000000	0.0449845 	44.000000	0.0449739 	44.000000	0.0451285 	44.000000	1.98036e-05
47.000000	0.037423  	47.000000	0.0428116 	47.000000	0.0426815 	47.000000	0.0426628 	47.000000	0.042793  	47.000000	1.86473e-05
50.000000	0.0356321 	50.000000	0.0407379 	50.000000	0.0406385 	50.000000	0.0406097 	50.000000	0.0407202 	50.000000	1.76234e-05
55.000000	0.0330519 	55.000000	0.0377544 	55.000000	0.037688  	55.000000	0.0376523 	55.000000	0.0377382 	55.000000	1.61542e-05
60.000000	0.0308728 	60.000000	0.0352394 	60.000000	0.0351959 	60.000000	0.0351556 	60.000000	0.0352245 	60.000000	1.49193e-05
65.000000	0.0290065 	65.000000	0.0330895 	65.000000	0.0330655 	65.000000	0.0330184 	65.000000	0.0330757 	65.000000	1.38662e-05
70.000000	0.0273889 	70.000000	0.0312298 	70.000000	0.0312155 	70.000000	0.0311674 	70.000000	0.0312168 	70.000000	1.2957e-05
75.000000	0.0259724 	75.000000	0.0296045 	75.000000	0.0296016 	75.000000	0.029548  	75.000000	0.0295924 	75.000000	1.21638e-05
80.000000	0.024721  	80.000000	0.0281716 	80.000000	0.0281738 	80.000000	0.0281188 	80.000000	0.0281602 	80.000000	1.14655e-05
85.000000	0.0236068 	85.000000	0.0268984 	85.000000	0.0269035 	85.000000	0.0268477 	85.000000	0.0268876 	85.000000	1.08458e-05
90.000000	0.022608  	90.000000	0.0257594 	90.000000	0.0257661 	90.000000	0.0257097 	90.000000	0.0257492 	90.000000	1.0292e-05
95.000000	0.0217072 	95.000000	0.0247343 	95.000000	0.0247415 	95.000000	0.0246846 	95.000000	0.0247245 	95.000000	9.79395e-06
100.000000	0.0208902 	100.000000	0.0238065 	100.000000	0.0238136 	100.000000	0.0237563 	100.000000	0.0237972 	100.000000	9.34361e-06
105.000000	0.0201457 	105.000000	0.0229628 	105.000000	0.0229692 	105.000000	0.0229116 	105.000000	0.0229538 	105.000000	8.93434e-06
110.000000	0.0194641 	110.000000	0.022192  	110.000000	0.0221973 	110.000000	0.0221395 	110.000000	0.0221835 	110.000000	8.56069e-06
115.000000	0.0188377 	115.000000	0.0214851 	115.000000	0.0214893 	115.000000	0.0214311 	115.000000	0.0214769 	115.000000	8.21815e-06
120.000000	0.0182599 	120.000000	0.0208344 	120.000000	0.0208358 	120.000000	0.0207787 	120.000000	0.0208265 	120.000000	7.90294e-06
125.000000	0.017725  	125.000000	0.0202333 	125.000000	0.0202312 	125.000000	0.0201758 	125.000000	0.0202257 	125.000000	7.61188e-06
130.000000	0.0172283 	130.000000	0.0196764 	130.000000	0.0196728 	130.000000	0.0196171 	130.000000	0.0196691 	130.000000	7.34227e-06
135.000000	0.0167659 	135.000000	0.0191589 	135.000000	0.0191535 	135.000000	0.0190977 	135.000000	0.0191519 	135.000000	7.09179e-06
140.000000	0.0163341 	140.000000	0.0186768 	140.000000	0.0186696 	140.000000	0.0186138 	140.000000	0.0186699 	140.000000	6.85844e-06
145.000000	0.0159299 	145.000000	0.0182265 	145.000000	0.0182174 	145.000000	0.0181616 	145.000000	0.0182199 	145.000000	6.64052e-06
150.000000	0.0155507 	150.000000	0.0178049 	150.000000	0.0177941 	150.000000	0.0177383 	150.000000	0.0177985 	150.000000	6.43651e-06
155.000000	0.0150169 	155.000000	0.0174095 	155.000000	0.0173971 	155.000000	0.0173411 	155.000000	0.0174032 	155.000000	6.24512e-06
160.000000	0.0147039 	160.000000	0.0170377 	160.000000	0.0170233 	160.000000	0.0169677 	160.000000	0.0170316 	160.000000	6.06518e-06
165.000000	0.0144089 	165.000000	0.0166876 	165.000000	0.0166701 	165.000000	0.016616  	165.000000	0.0166817 	165.000000	5.8957e-06
170.000000	0.0141301 	170.000000	0.0163572 	170.000000	0.0163376 	170.000000	0.0162842 	170.000000	0.0163515 	170.000000	5.73577e-06
175.000000	0.0138664 	175.000000	0.016045  	175.000000	0.0160242 	175.000000	0.0159706 	175.000000	0.0160394 	175.000000	5.58461e-06
180.000000	0.0136164 	180.000000	0.0157495 	180.000000	0.0157273 	180.000000	0.0156738 	180.000000	0.0157441 	180.000000	5.44149e-06
185.000000	0.0133792 	185.000000	0.0154694 	185.000000	0.015446  	185.000000	0.0153924 	185.000000	0.0154641 	185.000000	5.30579e-06
190.000000	0.0131537 	190.000000	0.0152035 	190.000000	0.015179  	190.000000	0.0151254 	190.000000	0.0151984 	190.000000	5.17693e-06
195.000000	0.0129391 	195.000000	0.0149508 	195.000000	0.0149245 	195.000000	0.0148715 	195.000000	0.0149457 	195.000000	5.05441e-06
200.000000	0.0127347 	200.000000	0.0147103 	200.000000	0.0146819 	200.000000	0.01463   	200.000000	0.0147053 	200.000000	4.93777e-06
210.000000	0.0123534 	210.000000	0.0142625 	210.000000	0.0142317 	210.000000	0.0141803 	210.000000	0.0142577 	210.000000	4.72046e-06
220.000000	0.012005  	220.000000	0.0138541 	220.000000	0.0138217 	220.000000	0.0137704 	220.000000	0.0138496 	220.000000	4.52212e-06
230.000000	0.0116852 	230.000000	0.0134802 	230.000000	0.0134466 	230.000000	0.0133952 	230.000000	0.0134758 	230.000000	4.34034e-06
240.000000	0.0113907 	240.000000	0.0131366 	240.000000	0.0131006 	240.000000	0.0130506 	240.000000	0.0131324 	240.000000	4.1731e-06
250.000000	0.0111186 	250.000000	0.0128197 	250.000000	0.0127822 	250.000000	0.0127329 	250.000000	0.0128157 	250.000000	4.01871e-06
260.000000	0.0108665 	260.000000	0.0125267 	260.000000	0.0124886 	260.000000	0.0124392 	260.000000	0.0125228 	260.000000	3.87572e-06
270.000000	0.0106321 	270.000000	0.0122549 	270.000000	0.0122161 	270.000000	0.012167  	270.000000	0.0122511 	270.000000	3.7429e-06
280.000000	0.0104137 	280.000000	0.0120021 	280.000000	0.0119627 	280.000000	0.0119139 	280.000000	0.0119985 	280.000000	3.61919e-06
290.000000	0.0102097 	290.000000	0.0117664 	290.000000	0.011726  	290.000000	0.0116781 	290.000000	0.0117629 	290.000000	3.50368e-06
300.000000	0.0100188 	300.000000	0.0115462 	300.000000	0.0115052 	300.000000	0.0114579 	300.000000	0.0115428 	300.000000	3.39556e-06
310.000000	0.00983965	310.000000	0.01134   	310.000000	0.0112992 	310.000000	0.0112518 	310.000000	0.0113367 	310.000000	3.29414e-06
320.000000	0.00967129	320.000000	0.0111465 	320.000000	0.011106  	320.000000	0.0110586 	320.000000	0.0111433 	320.000000	3.19882e-06
330.000000	0.00951276	330.000000	0.0109646 	330.000000	0.0109237 	330.000000	0.010877  	330.000000	0.0109615 	330.000000	3.10904e-06
340.000000	0.00936324	340.000000	0.0107934 	340.000000	0.010752  	340.000000	0.0107062 	340.000000	0.0107903 	340.000000	3.02433e-06
350.000000	0.00922199	350.000000	0.0106318 	350.000000	0.0105909 	350.000000	0.0105452 	350.000000	0.0106289 	350.000000	2.94428e-06
360.000000	0.00908836	360.000000	0.0104793 	360.000000	0.010439  	360.000000	0.0103933 	360.000000	0.0104764 	360.000000	2.8685e-06
370.000000	0.00896175	370.000000	0.0103349 	370.000000	0.0102945 	370.000000	0.0102488 	370.000000	0.0103321 	370.000000	2.79666e-06
380.000000	0.00884165	380.000000	0.0101982 	380.000000	0.0101572 	380.000000	0.0101121 	380.000000	0.0101955 	380.000000	2.72844e-06
390.000000	0.00872757	390.000000	0.0100686 	390.000000	0.0100269 	390.000000	0.00998251	390.000000	0.0100659 	390.000000	2.6636e-06
400.000000	0.00861908	400.000000	0.00994541	400.000000	0.00990358	400.000000	0.00985951	400.000000	0.00994281	400.000000	2.60186e-06
410.000000	0.00851579	410.000000	0.00982834	410.000000	0.00978678	410.000000	0.00974265	410.000000	0.0098258 	410.000000	2.54302e-06
420.000000	0.00841735	420.000000	0.00971691	420.000000	0.0096757 	420.000000	0.00963149	420.000000	0.00971442	420.000000	2.48688e-06
430.000000	0.00832344	430.000000	0.00961075	430.000000	0.0095697 	430.000000	0.00952565	430.000000	0.00960831	430.000000	2.43324e-06
440.000000	0.00823377	440.000000	0.0095095 	440.000000	0.00946828	440.000000	0.00942478	440.000000	0.00950712	440.000000	2.38195e-06
450.000000	0.00814806	450.000000	0.00941285	450.000000	0.00937147	450.000000	0.00932855	450.000000	0.00941051	450.000000	2.33285e-06
460.000000	0.00806607	460.000000	0.0093205 	460.000000	0.00927939	460.000000	0.00923666	460.000000	0.00931821	460.000000	2.28581e-06
470.000000	0.00798758	470.000000	0.00923219	470.000000	0.00919159	470.000000	0.00914885	470.000000	0.00922995	470.000000	2.24068e-06
480.000000	0.00791237	480.000000	0.00914768	480.000000	0.00910742	480.000000	0.00906486	480.000000	0.00914548	480.000000	2.19737e-06
490.000000	0.00784026	490.000000	0.00906673	490.000000	0.00902654	490.000000	0.00898446	490.000000	0.00906458	490.000000	2.15575e-06
500.000000	0.00777107	500.000000	0.00898915	500.000000	0.00894905	500.000000	0.00890744	500.000000	0.00898703	500.000000	2.11574e-06
520.000000	0.00764081	520.000000	0.0088433 	520.000000	0.00880414	520.000000	0.00876278	520.000000	0.00884126	520.000000	2.04015e-06
540.000000	0.00752042	540.000000	0.00870876	540.000000	0.00867096	540.000000	0.00862949	540.000000	0.00870679	540.000000	1.96995e-06
560.000000	0.00740889	560.000000	0.00858436	560.000000	0.00854755	560.000000	0.00850635	560.000000	0.00858246	560.000000	1.90458e-06
580.000000	0.00730536	580.000000	0.00846907	580.000000	0.00843281	580.000000	0.00839234	580.000000	0.00846723	580.000000	1.84355e-06
600.000000	0.00720907	600.000000	0.00836201	600.000000	0.00832664	600.000000	0.00828656	600.000000	0.00836022	600.000000	1.78643e-06
620.000000	0.00711935	620.000000	0.00826239	620.000000	0.00822831	620.000000	0.0081882 	620.000000	0.00826066	620.000000	1.73287e-06
640.000000	0.00703561	640.000000	0.00816955	640.000000	0.00813673	640.000000	0.00809658	640.000000	0.00816787	640.000000	1.68252e-06
660.000000	0.00695735	660.000000	0.00808287	660.000000	0.00805101	660.000000	0.00801109	660.000000	0.00808124	660.000000	1.63511e-06
680.000000	0.0068841 	680.000000	0.00800184	680.000000	0.00797057	680.000000	0.0079312 	680.000000	0.00800025	680.000000	1.59039e-06
700.000000	0.00681546	700.000000	0.00792597	700.000000	0.00789536	700.000000	0.00785641	700.000000	0.00792442	700.000000	1.54813e-06
720.000000	0.00675106	720.000000	0.00785485	720.000000	0.00782515	720.000000	0.00778631	720.000000	0.00785334	720.000000	1.50813e-06
740.000000	0.00669058	740.000000	0.00778811	740.000000	0.00775941	740.000000	0.00772052	740.000000	0.00778664	740.000000	1.47021e-06
