*Energy (MeV/u)1	0 - [He-base] F.Hubert et al, AD&ND Tables 46(1990)1	Energy (MeV/u)2	1 - [H -base] J.F.Ziegler et al, Pergamon Press, NY (low energy)	Energy (MeV/u)3	2 - ATIMA 1.2  LS-theory (recommended for high energy)	Energy (MeV/u)4	3 - ATIMA 1.2  without LS-correction	Energy (MeV/u)5	4 - electrical component of [1] - J.F.Ziegler et al	Energy (MeV/u)6	5 - nuclear component of [1] - J.F.Ziegler et al	
0.001000	0.537655  	0.001000	0.0481012 	0.001000	0.0486168 	0.001000	0.0486168 	0.001000	0.0341683 	0.001000	0.0139329 	
0.002000	0.687007  	0.002000	0.0732319 	0.002000	0.0741239 	0.002000	0.0741239 	0.002000	0.0591287 	0.002000	0.0141032 	
0.005000	1.06289   	0.005000	0.128389  	0.005000	0.130136  	0.005000	0.130136  	0.005000	0.115829  	0.005000	0.0125603 	
0.008000	1.3446    	0.008000	0.169743  	0.008000	0.172136  	0.008000	0.172136  	0.008000	0.15865   	0.008000	0.0110933 	
0.010000	1.50001   	0.010000	0.19305   	0.010000	0.195806  	0.010000	0.195806  	0.010000	0.182753  	0.010000	0.0102976 	
0.015000	1.91382   	0.015000	0.237879  	0.015000	0.245928  	0.015000	0.245928  	0.015000	0.2291    	0.015000	0.00877898	
0.020000	2.26      	0.020000	0.274519  	0.020000	0.288104  	0.020000	0.288104  	0.020000	0.266818  	0.020000	0.00770091	
0.025000	2.55519   	0.025000	0.306135  	0.025000	0.32556   	0.025000	0.32556   	0.025000	0.299243  	0.025000	0.00689186	
0.030000	2.80824   	0.030000	0.334338  	0.030000	0.350293  	0.030000	0.350293  	0.030000	0.328079  	0.030000	0.00625891	
0.035000	3.02452   	0.035000	0.360055  	0.035000	0.372633  	0.035000	0.372633  	0.035000	0.354307  	0.035000	0.00574796	
0.040000	3.20775   	0.040000	0.383856  	0.040000	0.393197  	0.040000	0.393197  	0.040000	0.378531  	0.040000	0.00532537	
0.045000	3.36088   	0.045000	0.406113  	0.045000	0.412376  	0.045000	0.412376  	0.045000	0.401144  	0.045000	0.00496904	
0.050000	3.48659   	0.050000	0.427074  	0.050000	0.43043   	0.050000	0.43043   	0.050000	0.42241   	0.050000	0.00466382	
0.055000	3.58745   	0.055000	0.446911  	0.055000	0.447536  	0.055000	0.447536  	0.055000	0.442512  	0.055000	0.00439896	
0.060000	3.66605   	0.060000	0.465746  	0.060000	0.463815  	0.060000	0.463815  	0.060000	0.46158   	0.060000	0.00416658	
0.070000	3.76657   	0.070000	0.500735  	0.070000	0.494218  	0.070000	0.494218  	0.070000	0.496958  	0.070000	0.00377704	
0.080000	3.80767   	0.080000	0.532498  	0.080000	0.522083  	0.080000	0.522083  	0.080000	0.529036  	0.080000	0.00346233	
0.090000	3.80667   	0.090000	0.561305  	0.090000	0.547653  	0.090000	0.547653  	0.090000	0.558103  	0.090000	0.00320198	
0.100000	3.77771   	0.100000	0.587337  	0.100000	0.571077  	0.100000	0.571077  	0.100000	0.584354  	0.100000	0.00298249	
0.120000	3.67613   	0.120000	0.631632  	0.120000	0.611879  	0.120000	0.611879  	0.120000	0.629001  	0.120000	0.00263158	
0.140000	3.55617   	0.140000	0.666437  	0.140000	0.645162  	0.140000	0.645162  	0.140000	0.664074  	0.140000	0.00236227	
0.160000	3.44049   	0.160000	0.692807  	0.160000	0.671564  	0.160000	0.671564  	0.160000	0.690678  	0.160000	0.00212842	
0.180000	3.33624   	0.180000	0.71191   	0.180000	0.691835  	0.180000	0.691835  	0.180000	0.709955  	0.180000	0.00195562	
0.200000	3.24396   	0.200000	0.724848  	0.200000	0.706699  	0.200000	0.706699  	0.200000	0.723036  	0.200000	0.00181133	
0.250000	3.05345   	0.250000	0.736931  	0.250000	0.724997  	0.250000	0.724997  	0.250000	0.735395  	0.250000	0.00153593	
0.300000	2.89788   	0.300000	0.730394  	0.300000	0.724406  	0.300000	0.724406  	0.300000	0.729055  	0.300000	0.00133909	
0.350000	2.76072   	0.350000	0.714264  	0.350000	0.712731  	0.350000	0.712731  	0.350000	0.713073  	0.350000	0.00119065	
0.400000	2.6351    	0.400000	0.693912  	0.400000	0.695221  	0.400000	0.695221  	0.400000	0.692838  	0.400000	0.00107431	
0.450000	2.51844   	0.450000	0.672299  	0.450000	0.675143  	0.450000	0.675143  	0.450000	0.671319  	0.450000	0.000980417	
0.500000	2.40976   	0.500000	0.650952  	0.500000	0.654411  	0.500000	0.654411  	0.500000	0.650049  	0.500000	0.000902884	
0.600000	2.21446   	0.600000	0.611509  	0.600000	0.61469   	0.600000	0.61469   	0.600000	0.610727  	0.600000	0.000781977	
0.700000	2.04584   	0.700000	0.57733   	0.700000	0.57948   	0.700000	0.57948   	0.700000	0.576638  	0.700000	0.000691698	
0.800000	1.90026   	0.800000	0.547959  	0.800000	0.549036  	0.800000	0.549036  	0.800000	0.547337  	0.800000	0.00062148	
0.900000	1.77408   	0.900000	0.522536  	0.900000	0.52273   	0.900000	0.52273   	0.900000	0.521971  	0.900000	0.000565164	
1.000000	1.66401   	1.000000	0.500272  	1.000000	0.499809  	1.000000	0.499809  	1.000000	0.499753  	1.000000	0.000518902	
1.250000	1.44251   	1.250000	0.454643  	1.250000	0.453319  	1.250000	0.453319  	1.250000	0.454211  	1.250000	0.000432495	
1.500000	1.27527   	1.500000	0.418771  	1.500000	0.417232  	1.500000	0.417232  	1.500000	0.418399  	1.500000	0.000372242	
1.750000	1.14428   	1.750000	0.389339  	1.750000	0.387858  	1.750000	0.387858  	1.750000	0.389011  	1.750000	0.000327637	
2.000000	1.03871   	2.000000	0.364508  	2.000000	0.363182  	2.000000	0.363182  	2.000000	0.364214  	2.000000	0.000293181	
2.250000	0.951701  	2.250000	0.343158  	2.250000	0.342009  	2.250000	0.342009  	2.250000	0.342893  	2.250000	0.0002657 	
2.500000	0.863967  	2.500000	0.32455   	2.500000	0.323566  	2.500000	0.323566  	2.500000	0.324307  	2.500000	0.000243231	
3.000000	0.754112  	3.000000	0.293597  	3.000000	0.292876  	3.000000	0.292876  	3.000000	0.293389  	3.000000	0.000208607	
3.500000	0.670838  	3.500000	0.268832  	3.500000	0.268284  	3.500000	0.268284  	3.500000	0.268649  	3.500000	0.000183093	
4.000000	0.605346  	4.000000	0.248534  	4.000000	0.248091  	4.000000	0.248091  	4.000000	0.24837   	4.000000	0.000163455	
4.500000	0.552374  	4.500000	0.231571  	4.500000	0.231188  	4.500000	0.231188  	4.500000	0.231424  	4.500000	0.000147841	
5.000000	0.508573  	5.000000	0.217166  	5.000000	0.216809  	5.000000	0.216809  	5.000000	0.217031  	5.000000	0.000135108	
5.500000	0.471702  	5.500000	0.204762  	5.500000	0.204411  	5.500000	0.204411  	5.500000	0.204637  	5.500000	0.000124512	
6.000000	0.440205  	6.000000	0.193955  	6.000000	0.193597  	6.000000	0.193597  	6.000000	0.193839  	6.000000	0.000115547	
6.500000	0.412963  	6.500000	0.184443  	6.500000	0.184067  	6.500000	0.184067  	6.500000	0.184335  	6.500000	0.000107857	
7.000000	0.389152  	7.000000	0.175995  	7.000000	0.175597  	7.000000	0.175597  	7.000000	0.175894  	7.000000	0.000101184	
7.500000	0.368148  	7.500000	0.168433  	7.500000	0.16801   	7.500000	0.16801   	7.500000	0.168338  	7.500000	9.53332e-05	
8.000000	0.349473  	8.000000	0.161618  	8.000000	0.161167  	8.000000	0.161167  	8.000000	0.161528  	8.000000	9.016e-05 	
8.500000	0.332753  	8.500000	0.155439  	8.500000	0.154959  	8.500000	0.154959  	8.500000	0.155353  	8.500000	8.55507e-05	
9.000000	0.317689  	9.000000	0.149804  	9.000000	0.149296  	9.000000	0.149296  	9.000000	0.149723  	9.000000	8.14159e-05	
9.500000	0.304043  	9.500000	0.144642  	9.500000	0.144106  	9.500000	0.144106  	9.500000	0.144564  	9.500000	7.76848e-05	
10.000000	0.291619  	10.000000	0.140253  	10.000000	0.139327  	10.000000	0.139327  	10.000000	0.140178  	10.000000	7.42998e-05	
11.000000	0.269824  	11.000000	0.132939  	11.000000	0.130879  	11.000000	0.130893  	11.000000	0.13287   	11.000000	6.83885e-05	
12.000000	0.251314  	12.000000	0.12628   	12.000000	0.123483  	12.000000	0.123507  	12.000000	0.126217  	12.000000	6.33951e-05	
13.000000	0.235387  	13.000000	0.12023   	13.000000	0.116949  	13.000000	0.116975  	13.000000	0.120171  	13.000000	5.91178e-05	
14.000000	0.221529  	14.000000	0.114729  	14.000000	0.111131  	14.000000	0.111156  	14.000000	0.114674  	14.000000	5.54103e-05	
15.000000	0.209353  	15.000000	0.109717  	15.000000	0.105916  	15.000000	0.10594   	15.000000	0.109665  	15.000000	5.21639e-05	
16.000000	0.198566  	16.000000	0.10514   	16.000000	0.101215  	16.000000	0.101238  	16.000000	0.10509   	16.000000	4.92963e-05	
17.000000	0.188939  	17.000000	0.100947  	17.000000	0.0969591 	17.000000	0.0969796 	17.000000	0.1009    	17.000000	4.67435e-05	
18.000000	0.180291  	18.000000	0.0970947 	18.000000	0.0930892 	18.000000	0.0931047 	18.000000	0.0970503 	18.000000	4.44557e-05	
19.000000	0.172477  	19.000000	0.0935459 	19.000000	0.0895531 	19.000000	0.0895644 	19.000000	0.0935035 	19.000000	4.23929e-05	
20.000000	0.16538   	20.000000	0.0902669 	20.000000	0.0863053 	20.000000	0.0863165 	20.000000	0.0902264 	20.000000	4.05229e-05	
21.000000	0.158904  	21.000000	0.087229  	21.000000	0.0833137 	21.000000	0.0833261 	21.000000	0.0871902 	21.000000	3.88193e-05	
22.000000	0.152969  	22.000000	0.084407  	22.000000	0.080554  	22.000000	0.0805633 	22.000000	0.0843698 	22.000000	3.72606e-05	
23.000000	0.14751   	23.000000	0.0817792 	23.000000	0.0780003 	23.000000	0.0780031 	23.000000	0.0817434 	23.000000	3.58287e-05	
24.000000	0.142469  	24.000000	0.0793263 	24.000000	0.0756273 	24.000000	0.0756235 	24.000000	0.0792918 	24.000000	3.45084e-05	
25.000000	0.1378    	25.000000	0.0770316 	25.000000	0.0734157 	25.000000	0.073406  	25.000000	0.0769983 	25.000000	3.3287e-05	
27.000000	0.129421  	27.000000	0.0728597 	27.000000	0.0694187 	27.000000	0.0693943 	27.000000	0.0728286 	27.000000	3.10987e-05	
29.000000	0.122112  	29.000000	0.0691651 	29.000000	0.0658921 	29.000000	0.0658617 	29.000000	0.0691359 	29.000000	2.91938e-05	
31.000000	0.115678  	31.000000	0.0658702 	31.000000	0.0628125 	31.000000	0.0627805 	31.000000	0.0658426 	31.000000	2.75197e-05	
33.000000	0.109966  	33.000000	0.0629133 	33.000000	0.0601323 	33.000000	0.0600904 	33.000000	0.0628873 	33.000000	2.60362e-05	
35.000000	0.104861  	35.000000	0.0602448 	35.000000	0.057704  	35.000000	0.0576642 	35.000000	0.0602201 	35.000000	2.4712e-05	
38.000000	0.0981394 	38.000000	0.0566962 	38.000000	0.0544824 	38.000000	0.0544362 	38.000000	0.0566732 	38.000000	2.29717e-05	
41.000000	0.0923337 	41.000000	0.0535993 	41.000000	0.0516612 	41.000000	0.0516141 	41.000000	0.0535779 	41.000000	2.14712e-05	
44.000000	0.0872651 	44.000000	0.0508725 	44.000000	0.0491641 	44.000000	0.0491224 	44.000000	0.0508524 	44.000000	2.01635e-05	
47.000000	0.0827992 	47.000000	0.0484526 	47.000000	0.0469515 	47.000000	0.0469041 	47.000000	0.0484336 	47.000000	1.9013e-05	
50.000000	0.0788325 	50.000000	0.0462901 	50.000000	0.0449627 	50.000000	0.0449148 	50.000000	0.0462721 	50.000000	1.79927e-05	
55.000000	0.0731189 	55.000000	0.0431546 	55.000000	0.0420688 	55.000000	0.0420167 	55.000000	0.0431381 	55.000000	1.65256e-05	
60.000000	0.0682948 	60.000000	0.0404892 	60.000000	0.0395862 	60.000000	0.0395382 	60.000000	0.040474  	60.000000	1.52896e-05	
65.000000	0.0641637 	65.000000	0.0381948 	65.000000	0.0374413 	65.000000	0.0373921 	65.000000	0.0381806 	65.000000	1.42334e-05	
70.000000	0.0605837 	70.000000	0.0361982 	70.000000	0.0355641 	70.000000	0.0355141 	70.000000	0.0361849 	70.000000	1.33197e-05	
75.000000	0.0574491 	75.000000	0.0344444 	75.000000	0.0339019 	75.000000	0.0338559 	75.000000	0.0344319 	75.000000	1.25213e-05	
80.000000	0.0546802 	80.000000	0.0328912 	80.000000	0.0324302 	80.000000	0.0323802 	80.000000	0.0328794 	80.000000	1.18172e-05	
85.000000	0.052215  	85.000000	0.0315058 	85.000000	0.0311053 	85.000000	0.0310579 	85.000000	0.0314946 	85.000000	1.11915e-05	
90.000000	0.0500053 	90.000000	0.0302622 	90.000000	0.0299112 	90.000000	0.0298659 	90.000000	0.0302515 	90.000000	1.06316e-05	
95.000000	0.0480123 	95.000000	0.0291393 	95.000000	0.028834  	95.000000	0.0287854 	95.000000	0.0291292 	95.000000	1.01274e-05	
100.000000	0.046205  	100.000000	0.0281204 	100.000000	0.0278478 	100.000000	0.0278014 	100.000000	0.0281107 	100.000000	9.67094e-06	
105.000000	0.044558  	105.000000	0.0271914 	105.000000	0.0269457 	105.000000	0.0269012 	105.000000	0.0271822 	105.000000	9.25564e-06	
110.000000	0.0430504 	110.000000	0.0263409 	110.000000	0.0261168 	110.000000	0.0260744 	110.000000	0.0263321 	110.000000	8.87609e-06	
115.000000	0.0416647 	115.000000	0.0255593 	115.000000	0.0253563 	115.000000	0.0253124 	115.000000	0.0255508 	115.000000	8.52779e-06	
120.000000	0.0403865 	120.000000	0.0248384 	120.000000	0.0246525 	120.000000	0.0246077 	120.000000	0.0248302 	120.000000	8.20698e-06	
125.000000	0.0392033 	125.000000	0.0241714 	125.000000	0.0239965 	125.000000	0.023954  	125.000000	0.0241635 	125.000000	7.91049e-06	
130.000000	0.0381048 	130.000000	0.0235524 	130.000000	0.0233872 	130.000000	0.0233459 	130.000000	0.0235448 	130.000000	7.6356e-06	
135.000000	0.0370818 	135.000000	0.0229764 	135.000000	0.0228219 	135.000000	0.0227788 	135.000000	0.022969  	135.000000	7.38001e-06	
140.000000	0.0361267 	140.000000	0.022439  	140.000000	0.0222919 	140.000000	0.0222487 	140.000000	0.0224318 	140.000000	7.14172e-06	
145.000000	0.0352327 	145.000000	0.0219364 	145.000000	0.0217936 	145.000000	0.021752  	145.000000	0.0219295 	145.000000	6.919e-06 	
150.000000	0.0343941 	150.000000	0.0214654 	150.000000	0.0213262 	150.000000	0.0212856 	150.000000	0.0214587 	150.000000	6.71037e-06	
155.000000	0.0332133 	155.000000	0.021023  	155.000000	0.0208861 	155.000000	0.0208469 	155.000000	0.0210165 	155.000000	6.51449e-06	
160.000000	0.0325212 	160.000000	0.0206067 	160.000000	0.0204723 	160.000000	0.0204334 	160.000000	0.0206004 	160.000000	6.33023e-06	
165.000000	0.0318685 	165.000000	0.0202143 	165.000000	0.0200834 	165.000000	0.0200431 	165.000000	0.0202081 	165.000000	6.15655e-06	
170.000000	0.0312519 	170.000000	0.0198437 	170.000000	0.0197144 	170.000000	0.019674  	170.000000	0.0198377 	170.000000	5.99257e-06	
175.000000	0.0306685 	175.000000	0.0194932 	175.000000	0.0193637 	175.000000	0.0193245 	175.000000	0.0194874 	175.000000	5.83747e-06	
180.000000	0.0301157 	180.000000	0.0191612 	180.000000	0.0190313 	180.000000	0.018993  	180.000000	0.0191555 	180.000000	5.69055e-06	
185.000000	0.029591  	185.000000	0.0188462 	185.000000	0.0187157 	185.000000	0.0186782 	185.000000	0.0188407 	185.000000	5.55117e-06	
190.000000	0.0290923 	190.000000	0.018547  	190.000000	0.0184154 	190.000000	0.0183789 	190.000000	0.0185416 	190.000000	5.41874e-06	
195.000000	0.0286177 	195.000000	0.0182624 	195.000000	0.0181306 	195.000000	0.0180939 	195.000000	0.0182571 	195.000000	5.29277e-06	
200.000000	0.0281656 	200.000000	0.0179914 	200.000000	0.0178601 	200.000000	0.0178223 	200.000000	0.0179862 	200.000000	5.17277e-06	
210.000000	0.0273223 	210.000000	0.0174864 	210.000000	0.0173527 	210.000000	0.0173156 	210.000000	0.0174814 	210.000000	4.94906e-06	
220.000000	0.0265516 	220.000000	0.0170253 	220.000000	0.0168882 	220.000000	0.0168524 	220.000000	0.0170206 	220.000000	4.74468e-06	
230.000000	0.0258444 	230.000000	0.0166028 	230.000000	0.0164618 	230.000000	0.0164274 	230.000000	0.0165982 	230.000000	4.5572e-06	
240.000000	0.0251931 	240.000000	0.0162141 	240.000000	0.0160715 	240.000000	0.0160361 	240.000000	0.0162098 	240.000000	4.38457e-06	
250.000000	0.0245913 	250.000000	0.0158555 	250.000000	0.0157102 	250.000000	0.0156748 	250.000000	0.0158513 	250.000000	4.22508e-06	
260.000000	0.0240335 	260.000000	0.0155235 	260.000000	0.0153744 	260.000000	0.0153402 	260.000000	0.0155194 	260.000000	4.07726e-06	
270.000000	0.0235152 	270.000000	0.0152154 	270.000000	0.0150627 	270.000000	0.0150294 	270.000000	0.0152114 	270.000000	3.93985e-06	
280.000000	0.0230322 	280.000000	0.0149286 	280.000000	0.0147726 	280.000000	0.0147401 	280.000000	0.0149248 	280.000000	3.81179e-06	
290.000000	0.022581  	290.000000	0.0146611 	290.000000	0.0145037 	290.000000	0.0144702 	290.000000	0.0146574 	290.000000	3.69212e-06	
300.000000	0.0221587 	300.000000	0.014411  	300.000000	0.0142515 	300.000000	0.0142179 	300.000000	0.0144075 	300.000000	3.58005e-06	
310.000000	0.0217625 	310.000000	0.0141768 	310.000000	0.0140141 	310.000000	0.0139815 	310.000000	0.0141733 	310.000000	3.47486e-06	
320.000000	0.0213901 	320.000000	0.0139568 	320.000000	0.0137916 	320.000000	0.0137596 	320.000000	0.0139535 	320.000000	3.37592e-06	
330.000000	0.0210395 	330.000000	0.01375   	330.000000	0.0135822 	330.000000	0.013551  	330.000000	0.0137467 	330.000000	3.2827e-06	
340.000000	0.0207088 	340.000000	0.0135552 	340.000000	0.0133854 	340.000000	0.0133545 	340.000000	0.013552  	340.000000	3.19469e-06	
350.000000	0.0203964 	350.000000	0.0133714 	350.000000	0.0132009 	350.000000	0.0131692 	350.000000	0.0133683 	350.000000	3.11148e-06	
360.000000	0.0201008 	360.000000	0.0131978 	360.000000	0.0130261 	360.000000	0.0129942 	360.000000	0.0131947 	360.000000	3.03266e-06	
370.000000	0.0198208 	370.000000	0.0130334 	370.000000	0.01286   	370.000000	0.0128287 	370.000000	0.0130305 	370.000000	2.95791e-06	
380.000000	0.0195552 	380.000000	0.0128777 	380.000000	0.0127027 	380.000000	0.012672  	380.000000	0.0128748 	380.000000	2.8869e-06	
390.000000	0.0193029 	390.000000	0.01273   	390.000000	0.0125536 	390.000000	0.0125233 	390.000000	0.0127272 	390.000000	2.81936e-06	
400.000000	0.0190629 	400.000000	0.0125897 	400.000000	0.0124119 	400.000000	0.0123823 	400.000000	0.0125869 	400.000000	2.75503e-06	
410.000000	0.0188345 	410.000000	0.0124562 	410.000000	0.0122775 	410.000000	0.0122482 	410.000000	0.0124535 	410.000000	2.6937e-06	
420.000000	0.0186168 	420.000000	0.0123292 	420.000000	0.0121505 	420.000000	0.0121206 	420.000000	0.0123266 	420.000000	2.63515e-06	
430.000000	0.0184091 	430.000000	0.0122082 	430.000000	0.0120295 	430.000000	0.0119992 	430.000000	0.0122056 	430.000000	2.57919e-06	
440.000000	0.0182107 	440.000000	0.0120927 	440.000000	0.0119137 	440.000000	0.0118835 	440.000000	0.0120902 	440.000000	2.52566e-06	
450.000000	0.0180212 	450.000000	0.0119825 	450.000000	0.0118027 	450.000000	0.011773  	450.000000	0.01198   	450.000000	2.47439e-06	
460.000000	0.0178398 	460.000000	0.0118772 	460.000000	0.0116969 	460.000000	0.0116676 	460.000000	0.0118748 	460.000000	2.42525e-06	
470.000000	0.0176662 	470.000000	0.0117765 	470.000000	0.0115959 	470.000000	0.0115669 	470.000000	0.0117741 	470.000000	2.3781e-06	
480.000000	0.0174999 	480.000000	0.01168   	480.000000	0.0114992 	480.000000	0.0114706 	480.000000	0.0116777 	480.000000	2.33283e-06	
490.000000	0.0173404 	490.000000	0.0115877 	490.000000	0.0114065 	490.000000	0.0113784 	490.000000	0.0115854 	490.000000	2.28931e-06	
500.000000	0.0171874 	500.000000	0.0114992 	500.000000	0.0113181 	500.000000	0.0112901 	500.000000	0.0114969 	500.000000	2.24746e-06	
520.000000	0.0168993 	520.000000	0.0113327 	520.000000	0.011153  	520.000000	0.0111243 	520.000000	0.0113306 	520.000000	2.16836e-06	
540.000000	0.016633  	540.000000	0.0111792 	540.000000	0.0110004 	540.000000	0.0109717 	540.000000	0.0111771 	540.000000	2.09485e-06	
560.000000	0.0163863 	560.000000	0.0110373 	560.000000	0.0108589 	560.000000	0.0108308 	560.000000	0.0110352 	560.000000	2.02636e-06	
580.000000	0.0161574 	580.000000	0.0109057 	580.000000	0.0107282 	580.000000	0.0107006 	580.000000	0.0109037 	580.000000	1.96237e-06	
600.000000	0.0159444 	600.000000	0.0107835 	600.000000	0.0106069 	600.000000	0.0105798 	600.000000	0.0107816 	600.000000	1.90246e-06	
620.000000	0.0157459 	620.000000	0.0106699 	620.000000	0.0104944 	620.000000	0.0104677 	620.000000	0.010668  	620.000000	1.84623e-06	
640.000000	0.0155607 	640.000000	0.010564  	640.000000	0.0103906 	640.000000	0.0103634 	640.000000	0.0105622 	640.000000	1.79337e-06	
660.000000	0.0153877 	660.000000	0.0104651 	660.000000	0.0102938 	660.000000	0.0102662 	660.000000	0.0104633 	660.000000	1.74356e-06	
680.000000	0.0152256 	680.000000	0.0103727 	680.000000	0.0102028 	680.000000	0.0101755 	680.000000	0.010371  	680.000000	1.69655e-06	
700.000000	0.0150738 	700.000000	0.0102862 	700.000000	0.0101176 	700.000000	0.0100908 	700.000000	0.0102845 	700.000000	1.65211e-06	
