*Energy (MeV/u)1	0 - [He-base] F.Hubert et al, AD&ND Tables 46(1990)1	Energy (MeV/u)2	1 - [H -base] J.F.Ziegler et al, Pergamon Press, NY (low energy)	Energy (MeV/u)3	2 - ATIMA 1.2  LS-theory (recommended for high energy)	Energy (MeV/u)4	3 - ATIMA 1.2  without LS-correction	Energy (MeV/u)5	4 - Range straggling - method [0] - LISE	Energy (MeV/u)6	5 - Range straggling - method [1] - Atima	Energy (MeV/u)7	6 - Lateral range - method [0] - LISE	Energy (MeV/u)8	7 - Lateral range - method [1] - Atima	Energy (MeV/u)9	8 - Lateral range - method [2] - PDG	
0.001000	0.0849777 	0.001000	0.0849777 	0.001000	0.0647173 	0.001000	0.0647173 	0.001000	0         	0.001000	0         	0.001000	0.000184111	0.001000	0.000289313	0.001000	0.000138395
0.002000	0.171747  	0.002000	0.169955  	0.002000	0.129435  	0.002000	0.129435  	0.002000	0.011176  	0.002000	0.011176  	0.002000	0.000539165	0.002000	0.000818496	0.002000	0.000420839
0.005000	0.359198  	0.005000	0.353535  	0.005000	0.267761  	0.005000	0.267761  	0.005000	0.0125608 	0.005000	0.0125608 	0.005000	0.00156335	0.005000	0.00232133	0.005000	0.00124699
0.008000	0.502317  	0.008000	0.493697  	0.008000	0.372738  	0.008000	0.372738  	0.008000	0.0125946 	0.008000	0.0125946 	0.008000	0.00252048	0.008000	0.00369675	0.008000	0.00203322
0.010000	0.585049  	0.010000	0.574721  	0.010000	0.433294  	0.010000	0.433294  	0.010000	0.0127015 	0.010000	0.0127015 	0.010000	0.00314327	0.010000	0.00458358	0.010000	0.00254861
0.015000	0.757746  	0.015000	0.743852  	0.015000	0.564851  	0.015000	0.564851  	0.015000	0.0132021 	0.015000	0.0132021 	0.015000	0.00467807	0.015000	0.00675192	0.015000	0.00382665
0.020000	0.896999  	0.020000	0.880228  	0.020000	0.678074  	0.020000	0.678074  	0.020000	0.0138414 	0.020000	0.0138414 	0.020000	0.00619392	0.020000	0.00887642	0.020000	0.00509664
0.025000	1.01627   	0.025000	0.99704   	0.025000	0.779295  	0.025000	0.779295  	0.025000	0.0144999 	0.025000	0.0144999 	0.025000	0.00770538	0.025000	0.0109825 	0.025000	0.00636844
0.030000	1.12246   	0.030000	1.10103   	0.030000	0.872507  	0.030000	0.872507  	0.030000	0.0151484 	0.030000	0.0151484 	0.030000	0.00923081	0.030000	0.0130973 	0.030000	0.00765677
0.035000	1.21958   	0.035000	1.19615   	0.035000	0.96044   	0.035000	0.96044   	0.035000	0.0157881 	0.035000	0.0157881 	0.035000	0.0107868 	0.035000	0.0152439 	0.035000	0.00897552
0.040000	1.31026   	0.040000	1.28495   	0.040000	1.0445    	0.040000	1.0445    	0.040000	0.0164176 	0.040000	0.0164176 	0.040000	0.0123811 	0.040000	0.0174337 	0.040000	0.0103311
0.045000	1.39627   	0.045000	1.36918   	0.045000	1.12569   	0.045000	1.12569   	0.045000	0.017039  	0.045000	0.017039  	0.045000	0.014022  	0.045000	0.0196779 	0.045000	0.0117302
0.050000	1.47888   	0.050000	1.45009   	0.050000	1.20474   	0.050000	1.20474   	0.050000	0.0176556 	0.050000	0.0181088 	0.050000	0.0157108 	0.050000	0.0219785 	0.050000	0.013174
0.055000	1.55905   	0.055000	1.52861   	0.055000	1.28224   	0.055000	1.28224   	0.055000	0.0182709 	0.055000	0.0193551 	0.055000	0.0174547 	0.055000	0.0243454 	0.055000	0.0146688
0.060000	1.63751   	0.060000	1.60544   	0.060000	1.35862   	0.060000	1.35862   	0.060000	0.0188885 	0.060000	0.0205237 	0.060000	0.0190926 	0.060000	0.0265637 	0.060000	0.0160746
0.070000	1.79143   	0.070000	1.75618   	0.070000	1.50945   	0.070000	1.50945   	0.070000	0.0201431 	0.070000	0.0227109 	0.070000	0.0220582 	0.070000	0.0304891 	0.070000	0.0186243
0.080000	1.94393   	0.080000	1.90554   	0.080000	1.65944   	0.080000	1.65944   	0.080000	0.0214422 	0.080000	0.0247864 	0.080000	0.0247947 	0.080000	0.0337973 	0.080000	0.020983
0.090000	2.09718   	0.090000	2.05562   	0.090000	1.81013   	0.090000	1.81013   	0.090000	0.0228043 	0.090000	0.0268184 	0.090000	0.0273951 	0.090000	0.0368839 	0.090000	0.0232311
0.100000	2.25263   	0.100000	2.20786   	0.100000	1.96265   	0.100000	1.96265   	0.100000	0.0242446 	0.100000	0.0288504 	0.100000	0.029834  	0.100000	0.0397327 	0.100000	0.0253467
0.120000	2.57376   	0.120000	2.52236   	0.120000	2.2763    	0.120000	2.2763    	0.120000	0.0274061 	0.120000	0.033024  	0.120000	0.0345157 	0.120000	0.0451044 	0.120000	0.0294253
0.140000	2.91202   	0.140000	2.85363   	0.140000	2.60489   	0.140000	2.60489   	0.140000	0.0309958 	0.140000	0.0374523 	0.140000	0.0389802 	0.140000	0.0501472 	0.140000	0.0333372
0.160000	3.26945   	0.160000	3.20368   	0.160000	2.95092   	0.160000	2.95092   	0.160000	0.0350507 	0.160000	0.0422053 	0.160000	0.0432764 	0.160000	0.0549535 	0.160000	0.0371233
0.180000	3.64675   	0.180000	3.57319   	0.180000	3.31573   	0.180000	3.31573   	0.180000	0.0395835 	0.180000	0.0473117 	0.180000	0.0474477 	0.180000	0.059581  	0.180000	0.0408191
0.200000	4.04395   	0.200000	3.96219   	0.200000	3.69991   	0.200000	3.69991   	0.200000	0.0445901 	0.200000	0.0527753 	0.200000	0.0514592 	0.200000	0.0640316 	0.200000	0.0443945
0.250000	5.1218    	0.250000	5.01777   	0.250000	4.74546   	0.250000	4.74546   	0.250000	0.0590681 	0.250000	0.0679115 	0.250000	0.0619679 	0.250000	0.0756349 	0.250000	0.0538132
0.300000	6.31512   	0.300000	6.18645   	0.300000	5.90911   	0.300000	5.90911   	0.300000	0.076068  	0.300000	0.0849019 	0.300000	0.0728447 	0.300000	0.0876227 	0.300000	0.0636428
0.350000	7.61717   	0.350000	7.46161   	0.350000	7.18453   	0.350000	7.18453   	0.350000	0.0952582 	0.350000	0.103432  	0.350000	0.0838968 	0.350000	0.0998049 	0.350000	0.0737093
0.400000	9.02251   	0.400000	8.83792   	0.400000	8.56541   	0.400000	8.56541   	0.400000	0.116381  	0.400000	0.123256  	0.400000	0.0955183 	0.400000	0.112587  	0.400000	0.0843464
0.450000	10.5268   	0.450000	10.3112   	0.450000	10.0463   	0.450000	10.0463   	0.450000	0.139249  	0.450000	0.1442    	0.450000	0.107532  	0.450000	0.12579   	0.450000	0.0953956
0.500000	12.1268   	0.500000	11.8781   	0.500000	11.6228   	0.500000	11.6228   	0.500000	0.163735  	0.500000	0.166144  	0.500000	0.12002   	0.500000	0.139479  	0.500000	0.106922
0.600000	15.6025   	0.600000	15.2821   	0.600000	15.0483   	0.600000	15.0483   	0.600000	0.217208  	0.600000	0.21273   	0.600000	0.146184  	0.600000	0.168095  	0.600000	0.131191
0.700000	19.4322   	0.700000	19.0326   	0.700000	18.8196   	0.700000	18.8196   	0.700000	0.27632   	0.700000	0.262607  	0.700000	0.174064  	0.700000	0.19842   	0.700000	0.157171
0.800000	23.6023   	0.800000	23.1166   	0.800000	22.9205   	0.800000	22.9205   	0.800000	0.340792  	0.800000	0.315557  	0.800000	0.203687  	0.800000	0.230444  	0.800000	0.184869
0.900000	28.102    	0.900000	27.5233   	0.900000	27.3388   	0.900000	27.3388   	0.900000	0.410441  	0.900000	0.371453  	0.900000	0.234961  	0.900000	0.26408   	0.900000	0.214195
1.000000	32.9222   	1.000000	32.244    	1.000000	32.065    	1.000000	32.065    	1.000000	0.485135  	1.000000	0.430203  	1.000000	0.267982  	1.000000	0.299357  	1.000000	0.24522
1.250000	46.3266   	1.250000	45.3716   	1.250000	45.1774   	1.250000	45.1774   	1.250000	0.693305  	1.250000	0.590902  	1.250000	0.357802  	1.250000	0.3944    	1.250000	0.329857
1.500000	61.5892   	1.500000	60.319    	1.500000	60.0694   	1.500000	60.0694   	1.500000	0.93115   	1.500000	0.778676  	1.500000	0.457269  	1.500000	0.499027  	1.500000	0.424545
1.750000	78.6336   	1.750000	77.0113   	1.750000	76.6691   	1.750000	76.6691   	1.750000	1.19773   	1.750000	0.989044  	1.750000	0.566743  	1.750000	0.612882  	1.750000	0.529024
2.000000	97.3979   	2.000000	95.3881   	2.000000	94.9198   	2.000000	94.9198   	2.000000	1.49225   	2.000000	1.21835   	2.000000	0.686205  	2.000000	0.735617  	2.000000	0.643025
2.250000	117.83    	2.250000	115.399   	2.250000	114.774   	2.250000	114.774   	2.250000	1.81406   	2.250000	1.46459   	2.250000	0.815403  	2.250000	0.866949  	2.250000	0.76633
2.500000	139.887   	2.500000	137       	2.500000	136.193   	2.500000	136.193   	2.500000	2.16258   	2.500000	1.72651   	2.500000	0.954106  	2.500000	1.00662   	2.500000	0.897026
3.000000	187.773   	3.000000	184.827   	3.000000	183.588   	3.000000	183.588   	3.000000	2.93771   	3.000000	2.29426   	3.000000	1.25636   	3.000000	1.31004   	3.000000	1.18312
3.500000	241.564   	3.500000	238.617   	3.500000	236.872   	3.500000	236.872   	3.500000	3.81411   	3.500000	2.91696   	3.500000	1.59429   	3.500000	1.64433   	3.500000	1.50511
4.000000	301.111   	4.000000	298.167   	4.000000	295.858   	4.000000	295.858   	4.000000	4.78888   	4.000000	3.59152   	4.000000	1.96772   	4.000000	2.00761   	4.000000	1.86117
4.500000	366.286   	4.500000	363.306   	4.500000	360.389   	4.500000	360.389   	4.500000	5.85956   	4.500000	4.31568   	4.500000	2.37529   	4.500000	2.39744   	4.500000	2.25001
5.000000	436.981   	5.000000	433.89    	5.000000	430.332   	5.000000	430.332   	5.000000	7.02401   	5.000000	5.0876    	5.000000	2.81591   	5.000000	2.81531   	5.000000	2.67061
5.500000	513.1     	5.500000	509.792   	5.500000	505.569   	5.500000	505.569   	5.500000	8.28037   	5.500000	5.90577   	5.500000	3.28872   	5.500000	3.26021   	5.500000	3.12215
6.000000	594.557   	6.000000	590.902   	6.000000	586       	6.000000	586       	6.000000	9.62701   	6.000000	6.7689    	6.000000	3.79299   	6.000000	3.73131   	6.000000	3.60393
6.500000	681.274   	6.500000	677.121   	6.500000	671.531   	6.500000	671.531   	6.500000	11.0624   	6.500000	7.67587   	6.500000	4.3281    	6.500000	4.22793   	6.500000	4.11537
7.000000	773.181   	7.000000	768.36    	7.000000	762.081   	7.000000	762.081   	7.000000	12.5853   	7.000000	8.62569   	7.000000	4.8935    	7.000000	4.74943   	7.000000	4.65594
7.500000	870.213   	7.500000	864.54    	7.500000	857.575   	7.500000	857.575   	7.500000	14.1945   	7.500000	9.61744   	7.500000	5.4887    	7.500000	5.29527   	7.500000	5.22515
8.000000	972.31    	8.000000	965.586   	8.000000	957.945   	8.000000	957.945   	8.000000	15.8887   	8.000000	10.6504   	8.000000	6.11325   	8.000000	5.86498   	8.000000	5.8226
8.500000	1079.42   	8.500000	1071.43   	8.500000	1063.13   	8.500000	1063.13   	8.500000	17.6671   	8.500000	11.7238   	8.500000	6.76675   	8.500000	6.45812   	8.500000	6.4479
9.000000	1191.48   	9.000000	1182.01   	9.000000	1173.06   	9.000000	1173.06   	9.000000	19.5286   	9.000000	12.8371   	9.000000	7.44884   	9.000000	7.07428   	9.000000	7.10069
9.500000	1308.45   	9.500000	1297.28   	9.500000	1287.7    	9.500000	1287.7    	9.500000	21.4725   	9.500000	13.9894   	9.500000	8.15917   	9.500000	7.7131    	9.500000	7.78066
10.000000	1430.28   	10.000000	1417.15   	10.000000	1406.99   	10.000000	1406.99   	10.000000	23.4977   	10.000000	15.18     	10.000000	8.89743   	10.000000	8.37424   	10.000000	8.4875
11.000000	1688.35   	11.000000	1669.53   	11.000000	1659.56   	11.000000	1659.56   	11.000000	27.8005   	11.000000	17.6803   	11.000000	10.4586   	11.000000	9.76399   	11.000000	9.98267
12.000000	1965.36   	12.000000	1939.99   	12.000000	1930.72   	12.000000	1930.71   	12.000000	32.4435   	12.000000	20.3425   	12.000000	12.1333   	12.000000	11.2437   	12.000000	11.587
13.000000	2261.01   	13.000000	2228.35   	13.000000	2220.24   	13.000000	2220.23   	13.000000	37.4233   	13.000000	23.1638   	13.000000	13.9207   	13.000000	12.8125   	13.000000	13.2999
14.000000	2575.03   	14.000000	2534.43   	14.000000	2527.94   	14.000000	2527.93   	14.000000	42.7374   	14.000000	26.1409   	14.000000	15.8202   	14.000000	14.4695   	14.000000	15.1208
15.000000	2907.15   	15.000000	2858.04   	15.000000	2853.66   	15.000000	2853.65   	15.000000	48.3841   	15.000000	29.2737   	15.000000	17.8313   	15.000000	16.2137   	15.000000	17.0491
16.000000	3257.15   	16.000000	3199.02   	16.000000	3197.24   	16.000000	3197.23   	16.000000	54.3621   	16.000000	32.5615   	16.000000	19.9535   	16.000000	18.0446   	16.000000	19.0845
17.000000	3624.79   	17.000000	3557.21   	17.000000	3558.56   	17.000000	3558.57   	17.000000	60.6699   	17.000000	36.0016   	17.000000	22.1863   	17.000000	19.9615   	17.000000	21.2266
18.000000	4009.87   	18.000000	3932.43   	18.000000	3937.51   	18.000000	3937.54   	18.000000	67.3069   	18.000000	39.5927   	18.000000	24.5294   	18.000000	21.9637   	18.000000	23.475
19.000000	4412.19   	19.000000	4324.55   	19.000000	4333.98   	19.000000	4334.04   	19.000000	74.2731   	19.000000	43.3347   	19.000000	26.9826   	19.000000	24.0509   	19.000000	25.8296
20.000000	4831.54   	20.000000	4733.42   	20.000000	4747.9    	20.000000	4748      	20.000000	81.5683   	20.000000	47.2274   	20.000000	29.5458   	20.000000	26.2227   	20.000000	28.2904
21.000000	5267.76   	21.000000	5158.88   	21.000000	5179.19   	21.000000	5179.33   	21.000000	89.1923   	21.000000	51.27     	21.000000	32.2186   	21.000000	28.4788   	21.000000	30.8572
22.000000	5720.68   	22.000000	5600.82   	22.000000	5627.78   	22.000000	5627.96   	22.000000	97.1451   	22.000000	55.4627   	22.000000	35.0011   	22.000000	30.8188   	22.000000	33.53
23.000000	6190.12   	23.000000	6059.08   	23.000000	6093.59   	23.000000	6093.82   	23.000000	105.427   	23.000000	59.8052   	23.000000	37.8932   	23.000000	33.2426   	23.000000	36.3088
24.000000	6675.92   	24.000000	6533.54   	24.000000	6576.56   	24.000000	6576.85   	24.000000	114.037   	24.000000	64.2962   	24.000000	40.8947   	24.000000	35.7497   	24.000000	39.1934
25.000000	7177.94   	25.000000	7024.09   	25.000000	7076.62   	25.000000	7077      	25.000000	122.974   	25.000000	68.9337   	25.000000	44.0055   	25.000000	38.3399   	25.000000	42.1838
27.000000	8230.04   	27.000000	8052.91   	27.000000	8127.77   	27.000000	8128.45   	27.000000	141.832   	27.000000	78.6485   	27.000000	50.5543   	27.000000	43.7687   	27.000000	48.4817
29.000000	9345.31   	29.000000	9144.62   	29.000000	9246.74   	29.000000	9247.76   	29.000000	162.005   	29.000000	88.958    	29.000000	57.5402   	29.000000	49.5281   	29.000000	55.2035
31.000000	10522.7   	31.000000	10298.3   	31.000000	10432.5   	31.000000	10433.9   	31.000000	183.459   	31.000000	99.8432   	31.000000	64.9569   	31.000000	55.6121   	31.000000	62.3438
33.000000	11761.2   	33.000000	11513.2   	33.000000	11680.6   	33.000000	11682.4   	33.000000	205.982   	33.000000	111.189   	33.000000	72.7648   	33.000000	61.9893   	33.000000	69.8652
35.000000	13059.9   	35.000000	12788.3   	35.000000	12989.5   	35.000000	12991.8   	35.000000	229.538   	35.000000	122.979   	35.000000	80.9494   	35.000000	68.6478   	35.000000	77.7543
38.000000	15119     	38.000000	14812.4   	38.000000	15065     	38.000000	15068     	38.000000	266.79    	38.000000	141.495   	38.000000	93.9123   	38.000000	79.1452   	38.000000	90.2591
41.000000	17308.9   	41.000000	16968     	41.000000	17272.6   	41.000000	17276.7   	41.000000	306.309   	41.000000	160.976   	41.000000	107.675   	41.000000	90.2343   	41.000000	103.548
44.000000	19626.9   	44.000000	19252.6   	44.000000	19610.2   	44.000000	19615.4   	44.000000	348.073   	44.000000	181.414   	44.000000	122.219   	44.000000	101.9     	44.000000	117.606
47.000000	22070.6   	47.000000	21664.1   	47.000000	22075.3   	47.000000	22081.7   	47.000000	392.043   	47.000000	202.795   	47.000000	137.527   	47.000000	114.127   	47.000000	132.417
50.000000	24637.8   	50.000000	24200.1   	50.000000	24665.9   	50.000000	24673.6   	50.000000	438.179   	50.000000	225.099   	50.000000	153.581   	50.000000	126.902   	50.000000	147.967
55.000000	29185     	55.000000	28698.2   	55.000000	29256.7   	55.000000	29266.5   	55.000000	519.772   	55.000000	264.282   	55.000000	181.958   	55.000000	149.381   	55.000000	175.491
60.000000	34060     	60.000000	33527.7   	60.000000	34181.2   	60.000000	34193.2   	60.000000	607.078   	60.000000	305.912   	60.000000	212.303   	60.000000	173.3     	60.000000	204.976
65.000000	39254.1   	65.000000	38680.1   	65.000000	39430.2   	65.000000	39445.4   	65.000000	699.877   	65.000000	349.861   	65.000000	244.546   	65.000000	198.606   	65.000000	236.366
70.000000	44759.5   	70.000000	44147.3   	70.000000	44996.5   	70.000000	45015     	70.000000	798.018   	70.000000	396.096   	70.000000	278.633   	70.000000	225.259   	70.000000	269.613
75.000000	50568.7   	75.000000	49921.7   	75.000000	50872.7   	75.000000	50894.7   	75.000000	901.336   	75.000000	444.511   	75.000000	314.509   	75.000000	253.221   	75.000000	304.674
80.000000	56675     	80.000000	55996     	80.000000	57051.7   	80.000000	57077.4   	80.000000	1009.66   	80.000000	495.075   	80.000000	352.123   	80.000000	282.452   	80.000000	341.505
85.000000	63071.8   	85.000000	62363.4   	85.000000	63526.9   	85.000000	63556.4   	85.000000	1122.84   	85.000000	547.732   	85.000000	391.424   	85.000000	312.918   	85.000000	380.063
90.000000	69752.9   	90.000000	69017.3   	90.000000	70291.9   	90.000000	70325.2   	90.000000	1240.71   	90.000000	602.396   	90.000000	432.363   	90.000000	344.585   	90.000000	420.309
95.000000	76712.7   	95.000000	75951.3   	95.000000	77340     	95.000000	77377.9   	95.000000	1363.1    	95.000000	658.964   	95.000000	474.887   	95.000000	377.415   	95.000000	462.197
100.000000	83945.6   	100.000000	83159.5   	100.000000	84665.2   	100.000000	84708.5   	100.000000	1489.87   	100.000000	717.391   	100.000000	518.951   	100.000000	411.377   	100.000000	505.69
105.000000	91446.5   	105.000000	90635.9   	105.000000	92262.7   	105.000000	92311.3   	105.000000	1620.9    	105.000000	777.683   	105.000000	564.515   	105.000000	446.446   	105.000000	550.756
110.000000	99210.2   	110.000000	98375.1   	110.000000	100127    	110.000000	100181    	110.000000	1756.07   	110.000000	839.787   	110.000000	611.538   	110.000000	482.591   	110.000000	597.359
115.000000	107232    	115.000000	106372    	115.000000	108252    	115.000000	108312    	115.000000	1895.24   	115.000000	903.644   	115.000000	659.978   	115.000000	519.786   	115.000000	645.466
120.000000	115508    	120.000000	114620    	120.000000	116634    	120.000000	116700    	120.000000	2038.3    	120.000000	969.165   	120.000000	709.795   	120.000000	558.004   	120.000000	695.042
125.000000	124033    	125.000000	123116    	125.000000	125268    	125.000000	125340    	125.000000	2185.11   	125.000000	1036.31   	125.000000	760.954   	125.000000	597.22    	125.000000	746.058
130.000000	132803    	130.000000	131854    	130.000000	134148    	130.000000	134226    	130.000000	2335.56   	130.000000	1105.09   	130.000000	813.414   	130.000000	637.407   	130.000000	798.479
135.000000	141814    	135.000000	140830    	135.000000	143270    	135.000000	143355    	135.000000	2489.55   	135.000000	1175.45   	135.000000	867.144   	135.000000	678.546   	135.000000	852.28
140.000000	151063    	140.000000	150039    	140.000000	152630    	140.000000	152721    	140.000000	2646.95   	140.000000	1247.32   	140.000000	922.102   	140.000000	720.609   	140.000000	907.424
145.000000	160545    	145.000000	159476    	145.000000	162223    	145.000000	162321    	145.000000	2807.63   	145.000000	1320.65   	145.000000	978.252   	145.000000	763.57    	145.000000	963.881
150.000000	170257    	150.000000	169138    	150.000000	172044    	150.000000	172151    	150.000000	2971.5    	150.000000	1395.42   	150.000000	1035.56   	150.000000	807.411   	150.000000	1021.62
155.000000	180333    	155.000000	179020    	155.000000	182091    	155.000000	182205    	155.000000	3138.5    	155.000000	1471.61   	155.000000	1094.01   	155.000000	852.113   	155.000000	1080.63
160.000000	190627    	160.000000	189118    	160.000000	192358    	160.000000	192481    	160.000000	3308.52   	160.000000	1549.19   	160.000000	1153.56   	160.000000	897.656   	160.000000	1140.87
165.000000	201131    	165.000000	199429    	165.000000	202843    	165.000000	202975    	165.000000	3481.47   	165.000000	1628.12   	165.000000	1214.18   	165.000000	944.019   	165.000000	1202.33
170.000000	211841    	170.000000	209948    	170.000000	213542    	170.000000	213682    	170.000000	3657.25   	170.000000	1708.37   	170.000000	1275.84   	170.000000	991.186   	170.000000	1264.97
