*Energy (MeV/u)1	0 - [He-base] F.Hubert et al, AD&ND Tables 46(1990)1	Energy (MeV/u)2	1 - [H -base] J.F.Ziegler et al, Pergamon Press, NY (low energy)	Energy (MeV/u)3	2 - ATIMA 1.2  LS-theory (recommended for high energy)	Energy (MeV/u)4	3 - ATIMA 1.2  without LS-correction	Energy (MeV/u)5	4 - Range straggling - method [0] - LISE	Energy (MeV/u)6	5 - Range straggling - method [1] - Atima	Energy (MeV/u)7	6 - Lateral range - method [0] - LISE	Energy (MeV/u)8	7 - Lateral range - method [1] - Atima	Energy (MeV/u)9	8 - Lateral range - method [2] - PDG	
0.001000	0.127263  	0.001000	0.127263  	0.001000	0.0969208 	0.001000	0.0969208 	0.001000	0         	0.001000	0         	0.001000	0.000344323	0.001000	0.000530286	0.001000	0.000264732
0.002000	0.257209  	0.002000	0.254525  	0.002000	0.193842  	0.002000	0.193842  	0.002000	0.0136768 	0.002000	0.0136768 	0.002000	0.00100841	0.002000	0.00150041	0.002000	0.000802697
0.005000	0.537936  	0.005000	0.529455  	0.005000	0.400999  	0.005000	0.400999  	0.005000	0.0153715 	0.005000	0.0153715 	0.005000	0.00292438	0.005000	0.00425653	0.005000	0.00237474
0.008000	0.75227   	0.008000	0.739362  	0.008000	0.558213  	0.008000	0.558213  	0.008000	0.0154128 	0.008000	0.0154128 	0.008000	0.00471536	0.008000	0.0067801 	0.008000	0.00386893
0.010000	0.87617   	0.010000	0.860703  	0.010000	0.648902  	0.010000	0.648902  	0.010000	0.0155437 	0.010000	0.0155437 	0.010000	0.00588092	0.010000	0.00840775	0.010000	0.00484796
0.015000	1.1348    	0.015000	1.11399   	0.015000	0.845922  	0.015000	0.845922  	0.015000	0.0161563 	0.015000	0.0161563 	0.015000	0.00875393	0.015000	0.0123889 	0.015000	0.00727484
0.020000	1.34335   	0.020000	1.31823   	0.020000	1.01549   	0.020000	1.01549   	0.020000	0.0169386 	0.020000	0.0169386 	0.020000	0.0115923 	0.020000	0.0162914 	0.020000	0.00968576
0.025000	1.52197   	0.025000	1.49317   	0.025000	1.16707   	0.025000	1.16707   	0.025000	0.0177445 	0.025000	0.0177445 	0.025000	0.0144232 	0.025000	0.020162  	0.025000	0.0120997
0.030000	1.68099   	0.030000	1.6489    	0.030000	1.30667   	0.030000	1.30667   	0.030000	0.0185381 	0.030000	0.0185381 	0.030000	0.0172809 	0.030000	0.0240502 	0.030000	0.0145448
0.035000	1.82645   	0.035000	1.79136   	0.035000	1.43836   	0.035000	1.43836   	0.035000	0.019321  	0.035000	0.019321  	0.035000	0.0201965 	0.035000	0.0279807 	0.035000	0.0170473
0.040000	1.96225   	0.040000	1.92435   	0.040000	1.56424   	0.040000	1.56424   	0.040000	0.0200913 	0.040000	0.0200913 	0.040000	0.0229967 	0.040000	0.0314242 	0.040000	0.0194561
0.045000	2.09105   	0.045000	2.05049   	0.045000	1.68583   	0.045000	1.68583   	0.045000	0.0208517 	0.045000	0.0208517 	0.045000	0.0254111 	0.045000	0.0343228 	0.045000	0.0215351
0.050000	2.21477   	0.050000	2.17166   	0.050000	1.80422   	0.050000	1.80422   	0.050000	0.0216063 	0.050000	0.0221609 	0.050000	0.0276354 	0.050000	0.0369282 	0.050000	0.0234526
0.055000	2.33484   	0.055000	2.28924   	0.055000	1.92028   	0.055000	1.92028   	0.055000	0.0223593 	0.055000	0.0236861 	0.055000	0.0297246 	0.055000	0.0393278 	0.055000	0.0252556
0.060000	2.45233   	0.060000	2.40431   	0.060000	2.03468   	0.060000	2.03468   	0.060000	0.0231151 	0.060000	0.0251162 	0.060000	0.031709  	0.060000	0.0415741 	0.060000	0.0269703
0.070000	2.68284   	0.070000	2.63006   	0.070000	2.26056   	0.070000	2.26056   	0.070000	0.0246505 	0.070000	0.0277928 	0.070000	0.0355368 	0.070000	0.0458268 	0.070000	0.0302831
0.080000	2.91123   	0.080000	2.85374   	0.080000	2.48518   	0.080000	2.48518   	0.080000	0.0262402 	0.080000	0.0303327 	0.080000	0.0392594 	0.080000	0.0498861 	0.080000	0.0335126
0.090000	3.14074   	0.090000	3.0785    	0.090000	2.71085   	0.090000	2.71085   	0.090000	0.0279071 	0.090000	0.0328194 	0.090000	0.0428687 	0.090000	0.0537714 	0.090000	0.0366529
0.100000	3.37354   	0.100000	3.30649   	0.100000	2.93926   	0.100000	2.93926   	0.100000	0.0296697 	0.100000	0.0353062 	0.100000	0.0463167 	0.100000	0.0574449 	0.100000	0.0396623
0.120000	3.85447   	0.120000	3.77749   	0.120000	3.40899   	0.120000	3.40899   	0.120000	0.0335387 	0.120000	0.0404137 	0.120000	0.0530104 	0.120000	0.0644991 	0.120000	0.0455287
0.140000	4.36105   	0.140000	4.27361   	0.140000	3.90109   	0.140000	3.90109   	0.140000	0.0379316 	0.140000	0.0458328 	0.140000	0.0594251 	0.140000	0.0712096 	0.140000	0.0511819
0.160000	4.89634   	0.160000	4.79784   	0.160000	4.4193    	0.160000	4.4193    	0.160000	0.0428938 	0.160000	0.0516494 	0.160000	0.065567  	0.160000	0.0776185 	0.160000	0.0566243
0.180000	5.46138   	0.180000	5.35121   	0.180000	4.96564   	0.180000	4.96564   	0.180000	0.0484409 	0.180000	0.0578984 	0.180000	0.0714667 	0.180000	0.083758  	0.180000	0.0618792
0.200000	6.05623   	0.200000	5.93378   	0.200000	5.54099   	0.200000	5.54099   	0.200000	0.0545679 	0.200000	0.0645846 	0.200000	0.0770859 	0.200000	0.089625  	0.200000	0.0669114
0.250000	7.67042   	0.250000	7.51463   	0.250000	7.10681   	0.250000	7.10681   	0.250000	0.0722855 	0.250000	0.0831077 	0.250000	0.0917525 	0.250000	0.104901  	0.250000	0.0801172
0.300000	9.45753   	0.300000	9.26483   	0.300000	8.8495    	0.300000	8.8495    	0.300000	0.0930894 	0.300000	0.1039    	0.300000	0.10674   	0.300000	0.120528  	0.300000	0.09372
0.350000	11.4075   	0.350000	11.1745   	0.350000	10.7596   	0.350000	10.7596   	0.350000	0.116574  	0.350000	0.126576  	0.350000	0.121644  	0.350000	0.136156  	0.350000	0.107353
0.400000	13.5121   	0.400000	13.2357   	0.400000	12.8276   	0.400000	12.8276   	0.400000	0.142422  	0.400000	0.150836  	0.400000	0.137184  	0.400000	0.152451  	0.400000	0.12164
0.450000	15.765    	0.450000	15.4421   	0.450000	15.0454   	0.450000	15.0454   	0.450000	0.170409  	0.450000	0.176467  	0.450000	0.153091  	0.450000	0.169142  	0.450000	0.136333
0.500000	18.1611   	0.500000	17.7886   	0.500000	17.4063   	0.500000	17.4063   	0.500000	0.200373  	0.500000	0.203322  	0.500000	0.169461  	0.500000	0.186344  	0.500000	0.151515
0.600000	23.3664   	0.600000	22.8864   	0.600000	22.5364   	0.600000	22.5364   	0.600000	0.265812  	0.600000	0.260332  	0.600000	0.203412  	0.600000	0.222018  	0.600000	0.183155
0.700000	29.1017   	0.700000	28.5033   	0.700000	28.1843   	0.700000	28.1843   	0.700000	0.338151  	0.700000	0.321369  	0.700000	0.238016  	0.700000	0.259552  	0.700000	0.216665
0.800000	35.3468   	0.800000	34.6194   	0.800000	34.3258   	0.800000	34.3258   	0.800000	0.417049  	0.800000	0.386168  	0.800000	0.274538  	0.800000	0.299016  	0.800000	0.252139
0.900000	42.0856   	0.900000	41.219    	0.900000	40.9427   	0.900000	40.9427   	0.900000	0.502283  	0.900000	0.454571  	0.900000	0.313034  	0.900000	0.340331  	0.900000	0.289493
1.000000	49.3044   	1.000000	48.2887   	1.000000	48.0205   	1.000000	48.0205   	1.000000	0.593692  	1.000000	0.526467  	1.000000	0.353646  	1.000000	0.383589  	1.000000	0.32886
1.250000	69.3788   	1.250000	67.9485   	1.250000	67.6577   	1.250000	67.6577   	1.250000	0.848442  	1.250000	0.723125  	1.250000	0.46421   	1.250000	0.499892  	1.250000	0.43578
1.500000	92.2361   	1.500000	90.3338   	1.500000	89.96     	1.500000	89.96     	1.500000	1.13951   	1.500000	0.952916  	1.500000	0.587796  	1.500000	0.627784  	1.500000	0.554958
1.750000	117.762   	1.750000	115.332   	1.750000	114.82    	1.750000	114.82    	1.750000	1.46573   	1.750000	1.21036   	1.750000	0.724176  	1.750000	0.766925  	1.750000	0.679241
2.000000	145.863   	2.000000	142.853   	2.000000	142.152   	2.000000	142.152   	2.000000	1.82617   	2.000000	1.49098   	2.000000	0.868638  	2.000000	0.916923  	2.000000	0.814073
2.250000	176.463   	2.250000	172.821   	2.250000	171.886   	2.250000	171.886   	2.250000	2.21999   	2.250000	1.79231   	2.250000	1.0243    	2.250000	1.07745   	2.250000	0.962472
2.500000	209.495   	2.500000	205.171   	2.500000	203.963   	2.500000	203.963   	2.500000	2.64649   	2.500000	2.11284   	2.500000	1.19327   	2.500000	1.2482    	2.500000	1.12354
3.000000	281.209   	3.000000	276.797   	3.000000	274.941   	3.000000	274.941   	3.000000	3.59506   	3.000000	2.80763   	3.000000	1.56847   	3.000000	1.61167   	3.000000	1.48126
3.500000	361.767   	3.500000	357.354   	3.500000	354.74    	3.500000	354.74    	3.500000	4.66758   	3.500000	3.56967   	3.500000	1.99044   	3.500000	2.01505   	3.500000	1.88374
4.000000	450.944   	4.000000	446.536   	4.000000	443.077   	4.000000	443.077   	4.000000	5.86047   	4.000000	4.39518   	4.000000	2.45673   	4.000000	2.45626   	4.000000	2.32868
4.500000	548.551   	4.500000	544.088   	4.500000	539.719   	4.500000	539.719   	4.500000	7.17072   	4.500000	5.28138   	4.500000	2.96563   	4.500000	2.9333    	4.500000	2.81447
5.000000	654.424   	5.000000	649.794   	5.000000	644.466   	5.000000	644.466   	5.000000	8.59574   	5.000000	6.22602   	5.000000	3.51579   	5.000000	3.44464   	5.000000	3.33984
5.500000	768.42    	5.500000	763.465   	5.500000	757.142   	5.500000	757.142   	5.500000	10.1332   	5.500000	7.22727   	5.500000	4.10615   	5.500000	3.98905   	5.500000	3.90376
6.000000	890.409   	6.000000	884.935   	6.000000	877.594   	6.000000	877.594   	6.000000	11.7812   	6.000000	8.28354   	6.000000	4.73578   	6.000000	4.56552   	6.000000	4.50536
6.500000	1020.28   	6.500000	1014.06   	6.500000	1005.69   	6.500000	1005.69   	6.500000	13.5378   	6.500000	9.39347   	6.500000	5.40393   	6.500000	5.17321   	6.500000	5.1439
7.000000	1157.92   	7.000000	1150.7    	7.000000	1141.29   	7.000000	1141.29   	7.000000	15.4015   	7.000000	10.5558   	7.000000	6.10989   	7.000000	5.81135   	7.000000	5.81872
7.500000	1303.23   	7.500000	1294.74   	7.500000	1284.31   	7.500000	1284.31   	7.500000	17.3707   	7.500000	11.7695   	7.500000	6.85305   	7.500000	6.47927   	7.500000	6.52922
8.000000	1456.13   	8.000000	1446.06   	8.000000	1434.62   	8.000000	1434.62   	8.000000	19.4441   	8.000000	13.0336   	8.000000	7.63287   	8.000000	7.1764    	8.000000	7.27487
8.500000	1616.54   	8.500000	1604.58   	8.500000	1592.14   	8.500000	1592.14   	8.500000	21.6204   	8.500000	14.3472   	8.500000	8.44883   	8.500000	7.90219   	8.500000	8.05521
9.000000	1784.36   	9.000000	1770.19   	9.000000	1756.78   	9.000000	1756.78   	9.000000	23.8985   	9.000000	15.7096   	9.000000	9.30049   	9.000000	8.65616   	9.000000	8.86978
9.500000	1959.54   	9.500000	1942.8    	9.500000	1928.47   	9.500000	1928.47   	9.500000	26.2773   	9.500000	17.1197   	9.500000	10.1874   	9.500000	9.43786   	9.500000	9.71817
10.000000	2141.99   	10.000000	2122.32   	10.000000	2107.11   	10.000000	2107.11   	10.000000	28.7557   	10.000000	18.5767   	10.000000	11.1092   	10.000000	10.2469   	10.000000	10.6
11.000000	2528.48   	11.000000	2500.28   	11.000000	2485.36   	11.000000	2485.36   	11.000000	34.0213   	11.000000	21.6365   	11.000000	13.0585   	11.000000	11.9474   	11.000000	12.4652
12.000000	2943.33   	12.000000	2905.33   	12.000000	2891.45   	12.000000	2891.44   	12.000000	39.7032   	12.000000	24.8944   	12.000000	15.1495   	12.000000	13.7581   	12.000000	14.4662
13.000000	3386.09   	13.000000	3337.19   	13.000000	3325.04   	13.000000	3325.02   	13.000000	45.7974   	13.000000	28.347    	13.000000	17.3813   	13.000000	15.6778   	13.000000	16.6024
14.000000	3856.37   	14.000000	3795.57   	14.000000	3785.85   	14.000000	3785.83   	14.000000	52.3005   	14.000000	31.9903   	14.000000	19.753    	14.000000	17.7053   	14.000000	18.8729
15.000000	4353.76   	15.000000	4280.21   	15.000000	4273.64   	15.000000	4273.62   	15.000000	59.2107   	15.000000	35.8241   	15.000000	22.2641   	15.000000	19.8397   	15.000000	21.2772
16.000000	4877.92   	16.000000	4790.86   	16.000000	4788.2    	16.000000	4788.18   	16.000000	66.5264   	16.000000	39.8476   	16.000000	24.9139   	16.000000	22.0801   	16.000000	23.8147
17.000000	5428.5    	17.000000	5327.28   	17.000000	5329.31   	17.000000	5329.31   	17.000000	74.2458   	17.000000	44.0576   	17.000000	27.7018   	17.000000	24.4257   	17.000000	26.4849
18.000000	6005.19   	18.000000	5889.22   	18.000000	5896.82   	18.000000	5896.86   	18.000000	82.3679   	18.000000	48.4522   	18.000000	30.6274   	18.000000	26.8757   	18.000000	29.2875
19.000000	6607.7    	19.000000	6476.46   	19.000000	6490.58   	19.000000	6490.67   	19.000000	90.8928   	19.000000	53.0316   	19.000000	33.6905   	19.000000	29.4298   	19.000000	32.2222
20.000000	7235.73   	20.000000	7088.77   	20.000000	7110.47   	20.000000	7110.61   	20.000000	99.8205   	20.000000	57.7952   	20.000000	36.8908   	20.000000	32.0874   	20.000000	35.289
21.000000	7889.01   	21.000000	7725.95   	21.000000	7756.37   	21.000000	7756.57   	21.000000	109.15    	21.000000	62.7425   	21.000000	40.2281   	21.000000	34.8481   	21.000000	38.4876
22.000000	8567.3    	22.000000	8387.79   	22.000000	8428.17   	22.000000	8428.44   	22.000000	118.883   	22.000000	67.8733   	22.000000	43.7024   	22.000000	37.7115   	22.000000	41.8181
23.000000	9270.33   	23.000000	9074.09   	23.000000	9125.77   	23.000000	9126.11   	23.000000	129.018   	23.000000	73.1875   	23.000000	47.3135   	23.000000	40.6774   	23.000000	45.2804
24.000000	9997.87   	24.000000	9784.65   	24.000000	9849.07   	24.000000	9849.5    	24.000000	139.554   	24.000000	78.6835   	24.000000	51.0612   	24.000000	43.7453   	24.000000	48.8744
25.000000	10749.7   	25.000000	10519.3   	25.000000	10598     	25.000000	10598.5   	25.000000	150.492   	25.000000	84.3587   	25.000000	54.9453   	25.000000	46.9149   	25.000000	52.5999
27.000000	12325.3   	27.000000	12060.1   	27.000000	12172.2   	27.000000	12173.2   	27.000000	173.569   	27.000000	96.2473   	27.000000	63.1222   	27.000000	53.5579   	27.000000	60.4455
29.000000	13995.5   	29.000000	13695     	29.000000	13847.9   	29.000000	13849.5   	29.000000	198.256   	29.000000	108.864   	29.000000	71.8448   	29.000000	60.6055   	29.000000	68.8182
31.000000	15758.8   	31.000000	15422.8   	31.000000	15623.7   	31.000000	15625.9   	31.000000	224.51    	31.000000	122.185   	31.000000	81.1054   	31.000000	68.0503   	31.000000	77.7112
33.000000	17613.6   	33.000000	17242.1   	33.000000	17492.9   	33.000000	17495.6   	33.000000	252.073   	33.000000	136.069   	33.000000	90.8543   	33.000000	75.854    	33.000000	87.0781
35.000000	19558.6   	35.000000	19151.8   	35.000000	19453.1   	35.000000	19456.5   	35.000000	280.901   	35.000000	150.498   	35.000000	101.074   	35.000000	84.0018   	35.000000	96.9022
38.000000	22642.3   	38.000000	22183.1   	38.000000	22561.4   	38.000000	22565.9   	38.000000	326.489   	38.000000	173.157   	38.000000	117.259   	38.000000	96.8472   	38.000000	112.472
41.000000	25921.8   	41.000000	25411.3   	41.000000	25867.5   	41.000000	25873.7   	41.000000	374.85    	41.000000	196.996   	41.000000	134.443   	41.000000	110.417   	41.000000	129.018
44.000000	29393.3   	44.000000	28832.8   	44.000000	29368.2   	44.000000	29376.1   	44.000000	425.96    	44.000000	222.009   	44.000000	152.603   	44.000000	124.692   	44.000000	146.518
47.000000	33053     	47.000000	32444.1   	47.000000	33060     	47.000000	33069.7   	47.000000	479.769   	47.000000	248.173   	47.000000	171.716   	47.000000	139.654   	47.000000	164.955
50.000000	36897.6   	50.000000	36242.1   	50.000000	36939.7   	50.000000	36951.2   	50.000000	536.229   	50.000000	275.469   	50.000000	191.762   	50.000000	155.287   	50.000000	184.309
55.000000	43707.5   	55.000000	42978.5   	55.000000	43814.9   	55.000000	43829.6   	55.000000	636.079   	55.000000	323.419   	55.000000	227.194   	55.000000	182.794   	55.000000	218.565
60.000000	51008.3   	60.000000	50211.2   	60.000000	51189.8   	60.000000	51207.9   	60.000000	742.922   	60.000000	374.365   	60.000000	265.082   	60.000000	212.062   	60.000000	255.258
65.000000	58787     	65.000000	57927.4   	65.000000	59050.8   	65.000000	59073.5   	65.000000	856.485   	65.000000	428.147   	65.000000	305.341   	65.000000	243.029   	65.000000	294.315
70.000000	67031.8   	70.000000	66115.1   	70.000000	67386.9   	70.000000	67414.5   	70.000000	976.587   	70.000000	484.728   	70.000000	347.902   	70.000000	275.644   	70.000000	335.682
75.000000	75731.8   	75.000000	74762.8   	75.000000	76187     	75.000000	76220     	75.000000	1103.02   	75.000000	543.978   	75.000000	392.698   	75.000000	309.86    	75.000000	379.3
80.000000	84876.6   	80.000000	83859.7   	80.000000	85440.8   	80.000000	85479.2   	80.000000	1235.59   	80.000000	605.856   	80.000000	439.663   	80.000000	345.63    	80.000000	425.116
85.000000	94456.4   	85.000000	93395.5   	85.000000	95138     	85.000000	95182.1   	85.000000	1374.09   	85.000000	670.295   	85.000000	488.734   	85.000000	382.911   	85.000000	473.078
90.000000	104462    	90.000000	103360    	90.000000	105269    	90.000000	105319    	90.000000	1518.34   	90.000000	737.191   	90.000000	539.851   	90.000000	421.661   	90.000000	523.136
95.000000	114885    	95.000000	113745    	95.000000	115824    	95.000000	115881    	95.000000	1668.12   	95.000000	806.417   	95.000000	592.947   	95.000000	461.835   	95.000000	575.234
100.000000	125717    	100.000000	124540    	100.000000	126795    	100.000000	126860    	100.000000	1823.25   	100.000000	877.919   	100.000000	647.965   	100.000000	503.394   	100.000000	629.324
105.000000	136950    	105.000000	135737    	105.000000	138173    	105.000000	138246    	105.000000	1983.61   	105.000000	951.702   	105.000000	704.857   	105.000000	546.307   	105.000000	685.367
110.000000	148577    	110.000000	147327    	110.000000	149950    	110.000000	150031    	110.000000	2149.02   	110.000000	1027.7    	110.000000	763.57    	110.000000	590.538   	110.000000	743.319
115.000000	160591    	115.000000	159302    	115.000000	162119    	115.000000	162209    	115.000000	2319.33   	115.000000	1105.85   	115.000000	824.053   	115.000000	636.053   	115.000000	803.137
120.000000	172985    	120.000000	171656    	120.000000	174672    	120.000000	174770    	120.000000	2494.4    	120.000000	1186.03   	120.000000	886.255   	120.000000	682.819   	120.000000	864.78
125.000000	185752    	125.000000	184379    	125.000000	187601    	125.000000	187709    	125.000000	2674.06   	125.000000	1268.2    	125.000000	950.133   	125.000000	730.807   	125.000000	928.21
130.000000	198886    	130.000000	197465    	130.000000	200900    	130.000000	201017    	130.000000	2858.18   	130.000000	1352.37   	130.000000	1015.63   	130.000000	779.985   	130.000000	993.385
135.000000	212381    	135.000000	210907    	135.000000	214562    	135.000000	214688    	135.000000	3046.63   	135.000000	1438.48   	135.000000	1082.72   	135.000000	830.326   	135.000000	1060.27
140.000000	226232    	140.000000	224698    	140.000000	228579    	140.000000	228715    	140.000000	3239.25   	140.000000	1526.43   	140.000000	1151.34   	140.000000	881.797   	140.000000	1128.83
145.000000	240432    	145.000000	238832    	145.000000	242945    	145.000000	243092    	145.000000	3435.88   	145.000000	1616.17   	145.000000	1221.45   	145.000000	934.369   	145.000000	1199.01
150.000000	254977    	150.000000	253301    	150.000000	257654    	150.000000	257813    	150.000000	3636.42   	150.000000	1707.67   	150.000000	1293.01   	150.000000	988.016   	150.000000	1270.79
155.000000	270066    	155.000000	268101    	155.000000	272699    	155.000000	272871    	155.000000	3840.78   	155.000000	1800.91   	155.000000	1365.99   	155.000000	1042.72   	155.000000	1344.14
160.000000	285483    	160.000000	283224    	160.000000	288076    	160.000000	288260    	160.000000	4048.85   	160.000000	1895.84   	160.000000	1440.34   	160.000000	1098.45   	160.000000	1419.02
165.000000	301214    	165.000000	298665    	165.000000	303778    	165.000000	303975    	165.000000	4260.5    	165.000000	1992.44   	165.000000	1516.03   	165.000000	1155.18   	165.000000	1495.41
170.000000	317253    	170.000000	314419    	170.000000	319800    	170.000000	320010    	170.000000	4475.62   	170.000000	2090.65   	170.000000	1593.03   	170.000000	1212.9    	170.000000	1573.26
