Energy (MeV/u)	0 - [He-base] F.Hubert et al, AD&ND Tables 46(1990)1	1 - [H -base] J.F.Ziegler et al, Pergamon Press, NY (low energy)	2 - ATIMA 1.2  LS-theory (recommended for high energy)	3 - ATIMA 1.2  without LS-correction	4 - Range straggling - method [0] - LISE	5 - Range straggling - method [1] - Atima	6 - Lateral range - method [0] - LISE	7 - Lateral range - method [1] - Atima	8 - Lateral range - method [2] - PDG
0.001000	0.0573549 	0.0573549 	0.0502661 	0.0502661 	-	-	0.000122642	0.000198028	9.21403e-05
93.633957	14469.3   	14325.1   	14553.3   	14565.5   	96.9866   	47.1699   	30.6891   	26.8987   	30.603    
187.266914	48379.5   	47890.8   	48550.1   	48694.8   	312.123   	146.281   	98.9504   	84.5262   	101.344   
280.899871	95823.4   	94696.4   	96020.7   	96404     	591.656   	276.489   	188.975   	160.876   	198.349   
374.532828	153104    	151274    	153463    	154170    	906.225   	427.478   	291.892   	249.462   	313.292   
468.165785	218009    	215290    	218466    	219563    	1238.32   	592.896   	402.169   	346.072   	440.504   
561.798742	288978    	285116    	289338    	290878    	1577.32   	768.928   	516.3     	447.885   	576.069   
655.431699	364807    	359529    	364808    	366833    	1916.65   	952.876   	631.983   	552.91    	717.155   
749.064655	444549    	437594    	443916    	446462    	2252.25   	1143.09   	747.716   	659.741   	861.713   
842.697612	527449    	518583    	525931    	529020    	2581.8    	1338.13   	862.536   	767.386   	1008.26   
936.330569	612922    	601946    	610254    	613910    	2903.22   	1536.86   	975.698   	875.039   	1155.6    
1029.963526	700459    	687215    	696424    	700663    	3215.81   	1738.63   	1086.78   	982.153   	1302.87   
1123.596483	789631    	774005    	784089    	788920    	3519.46   	1943.12   	1195.57   	1088.37   	1449.51   
1217.229440	880101    	862021    	872972    	878408    	3814.08   	2150.08   	1301.92   	1193.43   	1595.07   
1310.862397	971572    	951004    	962848    	968899    	4099.84   	2359.27   	1405.78   	1297.14   	1739.24   
1404.495354	1.06379e+06	1.04074e+06	1.05353e+06	1.0602e+06	4377.13   	2570.38   	1507.17   	1399.4    	1881.82   
1498.128311	1.15653e+06	1.13104e+06	1.14487e+06	1.15216e+06	4646.25   	2783.37   	1606.13   	1500.13   	2022.67   
1591.761268	1.24963e+06	1.22177e+06	1.23675e+06	1.24467e+06	4907.45   	2998.11   	1702.68   	1599.27   	2161.64   
1685.394225	1.34292e+06	1.31279e+06	1.32905e+06	1.3376e+06	5161.16   	3214.52   	1796.91   	1696.81   	2298.69   
1779.027182	1.43626e+06	1.40399e+06	1.4217e+06	1.43088e+06	5407.49   	3432.61   	1888.83   	1792.67   	2433.7    
1872.660139	1.52954e+06	1.49528e+06	1.51461e+06	1.52442e+06	5647.24   	3652.14   	1978.65   	1886.98   	2566.79   
1966.293096	1.62266e+06	1.58656e+06	1.60773e+06	1.61817e+06	5880.54   	3873.04   	2066.39   	1979.71   	2697.89   
2059.926052	1.71549e+06	1.67778e+06	1.70101e+06	1.71208e+06	6107.07   	4095.47   	2151.92   	2070.7    	2826.81   
2153.559009	1.80801e+06	1.76887e+06	1.79439e+06	1.8061e+06	6328.4    	4319.18   	2235.73   	2160.31   	2953.97   
2247.191966	1.90015e+06	1.85979e+06	1.88785e+06	1.90018e+06	6544.22   	4544.32   	2317.71   	2248.43   	3079.22   
2340.824923	1.99184e+06	1.95048e+06	1.98136e+06	1.99432e+06	6754.8    	4770.91   	2397.94   	2335.09   	3202.59   
2434.457880	2.08303e+06	2.04092e+06	2.07488e+06	2.08846e+06	6960.39   	4998.91   	2476.48   	2420.33   	3324.11   
2528.090837	2.17369e+06	2.13106e+06	2.1684e+06	2.1826e+06	7161.23   	5228.28   	2553.42   	2504.17   	3443.82   
2621.723794	2.26377e+06	2.22088e+06	2.26189e+06	2.27672e+06	7357.54   	5458.99   	2628.8    	2586.67   	3561.76   
2715.356751	2.35324e+06	2.31035e+06	2.35533e+06	2.37078e+06	7549.54   	5691.01   	2702.71   	2667.85   	3677.98   
2808.989708	2.44208e+06	2.39945e+06	2.44873e+06	2.4648e+06	7737.42   	5924.34   	2775.2    	2747.76   	3792.51   
2902.622665	2.53027e+06	2.48817e+06	2.54205e+06	2.55874e+06	7921.38   	6158.94   	2846.32   	2826.43   	3905.4    
2996.255622	2.61775e+06	2.57646e+06	2.63529e+06	2.6526e+06	8101.43   	6394.88   	2916.08   	2903.84   	4016.63   
3089.888579	2.70415e+06	2.66409e+06	2.72839e+06	2.74631e+06	8276.06   	6632.78   	2983.94   	2979.48   	4125.49   
3183.521536	2.79051e+06	2.7517e+06	2.82148e+06	2.84001e+06	8450.46   	6870.75   	3051.72   	3055.04   	4234.25   
3277.154493	2.87561e+06	2.83852e+06	2.91439e+06	2.93353e+06	8619.12   	7110.94   	3117.48   	3128.68   	4340.42   
3370.787449	2.96043e+06	2.92517e+06	3.00726e+06	3.02701e+06	8786.56   	7351.61   	3182.81   	3201.9    	4446.05   
3464.420406	3.04417e+06	3.01115e+06	3.09997e+06	3.12032e+06	8949.62   	7594.09   	3246.58   	3273.61   	4549.64   
3558.053363	3.12743e+06	3.09682e+06	3.1926e+06	3.21356e+06	9110.7    	7837.4    	3309.64   	3344.65   	4652.31   
3651.686320	3.2098e+06	3.18193e+06	3.28508e+06	3.30664e+06	9268.56   	8082.16   	3371.56   	3414.54   	4753.45   
3745.319277	3.29147e+06	3.2666e+06	3.37745e+06	3.39961e+06	9423.81   	8328.08   	3432.55   	3483.52   	4853.34   
3838.952234	3.37247e+06	3.35083e+06	3.46971e+06	3.49247e+06	9576.83   	8575.06   	3492.74   	3551.69   	4952.14   
3932.585191	3.45255e+06	3.43448e+06	3.56181e+06	3.58517e+06	9726.72   	8823.56   	3551.81   	3618.74   	5049.42   
4026.218148	3.53218e+06	3.51783e+06	3.65384e+06	3.67778e+06	9875.22   	9072.76   	3610.38   	3685.28   	5146      
4119.851105	3.61067e+06	3.60045e+06	3.74567e+06	3.7702e+06	10020.2   	9323.79   	3667.68   	3750.51   	5240.8    
4213.484062	3.68893e+06	3.68291e+06	3.83745e+06	3.86258e+06	10164.5   	9575.18   	3724.74   	3815.5    	5335.26   
4307.117019	3.76585e+06	3.7645e+06	3.92901e+06	3.95472e+06	10304.8   	9828.72   	3780.38   	3879.03   	5427.74   
4400.749976	3.84276e+06	3.84609e+06	4.02056e+06	4.04685e+06	10445.2   	10082.3   	3836.02   	3942.55   	5520.19   
4494.382933	3.91812e+06	3.92665e+06	4.11183e+06	4.13871e+06	10581.3   	10338.3   	3890.14   	4004.47   	5610.47   
4588.015890	3.99349e+06	4.00722e+06	4.20311e+06	4.23056e+06	10717.5   	10594.3   	3944.26   	4066.4    	5700.74   
4681.648846	4.06752e+06	4.08691e+06	4.29414e+06	4.32217e+06	10850.2   	10852.5   	3997.14   	4127.01   	5789.2    
4775.281803	4.14135e+06	4.16646e+06	4.38514e+06	4.41375e+06	10982.4   	11111     	4049.83   	4187.43   	5877.4    
4868.914760	4.21408e+06	4.24528e+06	4.47593e+06	4.50512e+06	11111.8   	11371.2   	4101.55   	4246.79   	5964.14   
4962.547717	4.28642e+06	4.32383e+06	4.56666e+06	4.59641e+06	11240.4   	11632.1   	4152.92   	4305.79   	6050.37   
5056.180674	4.35776e+06	4.40171e+06	4.6572e+06	4.68752e+06	11366.6   	11894.6   	4203.46   	4363.87   	6135.35   
5149.813631	4.42843e+06	4.47915e+06	4.74762e+06	4.77851e+06	11491.2   	12158.3   	4253.44   	4421.36   	6219.5    
5243.446588	4.49911e+06	4.55659e+06	4.83804e+06	4.8695e+06	11615.9   	12421.9   	4303.42   	4478.84   	6303.64   
5337.079545	4.56812e+06	4.63289e+06	4.92815e+06	4.96017e+06	11736.9   	12688.2   	4352.08   	4534.86   	6385.76   
5430.712502	4.63701e+06	4.70911e+06	5.01824e+06	5.05082e+06	11857.6   	12954.8   	4400.63   	4590.78   	6467.73   
5524.345459	4.70522e+06	4.78487e+06	5.1082e+06	5.14135e+06	11976.9   	13222.5   	4448.69   	4646.13   	6548.92   
5617.978416	4.77151e+06	4.85932e+06	5.19781e+06	5.23151e+06	12092.3   	13493.4   	4495.32   	4699.89   	6627.9    
5711.611373	4.83781e+06	4.93376e+06	5.28741e+06	5.32167e+06	12207.6   	13764.4   	4541.95   	4753.66   	6706.88   
5805.244330	4.9041e+06	5.00821e+06	5.37702e+06	5.41183e+06	12323     	14035.3   	4588.58   	4807.42   	6785.85   
5898.877287	4.9704e+06	5.08265e+06	5.46662e+06	5.50199e+06	12438.3   	14306.3   	4635.21   	4861.18   	6864.83   
5992.510243	5.03669e+06	5.1571e+06	5.55623e+06	5.59214e+06	12553.7   	14577.2   	4681.84   	4914.95   	6943.8    
6086.143200	5.09997e+06	5.22944e+06	5.64527e+06	5.68173e+06	12663.2   	14853.4   	4726.39   	4966.34   	7019.47   
6179.776157	5.16299e+06	5.30161e+06	5.73425e+06	5.77126e+06	12772.2   	15130.1   	4770.76   	5017.53   	7094.85   
6273.409114	5.226e+06 	5.37377e+06	5.82324e+06	5.86079e+06	12881.2   	15406.7   	4815.12   	5068.72   	7170.23   
6367.042071	5.28902e+06	5.44594e+06	5.91223e+06	5.95032e+06	12990.3   	15683.4   	4859.49   	5119.91   	7245.61   
6460.675028	5.35203e+06	5.5181e+06	6.00121e+06	6.03986e+06	13099.3   	15960     	4903.86   	5171.09   	7320.99   
6554.307985	5.41326e+06	5.58901e+06	6.08986e+06	6.12904e+06	13205.1   	16239.9   	4947.09   	5220.97   	7394.52   
6647.940942	5.4732e+06	5.659e+06 	6.17826e+06	6.21798e+06	13308.6   	16522.1   	4989.51   	5269.88   	7466.72   
6741.573899	5.53314e+06	5.72899e+06	6.26666e+06	6.30692e+06	13412.1   	16804.3   	5031.92   	5318.8    	7538.91   
6835.206856	5.59308e+06	5.79899e+06	6.35506e+06	6.39586e+06	13515.6   	17086.5   	5074.33   	5367.72   	7611.11   
6928.839813	5.65302e+06	5.86898e+06	6.44346e+06	6.4848e+06	13619.1   	17368.7   	5116.75   	5416.64   	7683.3    
7022.472770	5.71227e+06	5.93848e+06	6.53173e+06	6.5736e+06	13721.4   	17652.2   	5158.75   	5465.07   	7754.82   
7116.105727	5.76933e+06	6.0064e+06	6.61958e+06	6.66198e+06	13820.1   	17939.8   	5199.46   	5511.98   	7824.18   
7209.738684	5.82639e+06	6.07433e+06	6.70743e+06	6.75035e+06	13918.7   	18227.4   	5240.17   	5558.88   	7893.54   
7303.371640	5.88345e+06	6.14226e+06	6.79527e+06	6.83873e+06	14017.3   	18515.1   	5280.88   	5605.79   	7962.9    
7397.004597	5.94051e+06	6.21019e+06	6.88312e+06	6.9271e+06	14116     	18802.7   	5321.59   	5652.69   	8032.26   
7490.637554	5.99758e+06	6.27811e+06	6.97097e+06	7.01548e+06	14214.6   	19090.3   	5362.3    	5699.6    	8101.61   
7584.270511	6.05221e+06	6.34428e+06	7.05835e+06	7.10338e+06	14309.4   	19382.7   	5401.67   	5744.88   	8168.69   
7677.903468	6.10658e+06	6.41025e+06	7.14567e+06	7.19122e+06	14403.7   	19675.7   	5440.89   	5789.99   	8235.51   
7771.536425	6.16095e+06	6.47621e+06	7.233e+06 	7.27907e+06	14498.1   	19968.6   	5480.11   	5835.1    	8302.33   
7865.169382	6.21533e+06	6.54218e+06	7.32032e+06	7.36691e+06	14592.4   	20261.6   	5519.33   	5880.21   	8369.16   
7958.802339	6.2697e+06	6.60815e+06	7.40765e+06	7.45476e+06	14686.7   	20554.5   	5558.55   	5925.32   	8435.98   
8052.435296	6.32266e+06	6.67307e+06	7.4947e+06	7.54232e+06	14778.9   	20850.3   	5597.03   	5969.53   	8501.52   
8146.068253	6.37451e+06	6.73718e+06	7.58153e+06	7.62967e+06	14869.4   	21148.4   	5634.94   	6013.03   	8566.06   
8239.701210	6.42637e+06	6.80129e+06	7.66836e+06	7.71701e+06	14959.9   	21446.5   	5672.84   	6056.53   	8630.6    
8333.334167	6.47822e+06	6.8654e+06	7.75519e+06	7.80436e+06	15050.4   	21744.6   	5710.74   	6100.03   	8695.14   
8426.967124	6.53008e+06	6.9295e+06	7.84202e+06	7.8917e+06	15140.8   	22042.7   	5748.65   	6143.52   	8759.68   
8520.600081	6.58141e+06	6.99322e+06	7.92875e+06	7.97894e+06	15230.6   	22341.9   	5786.29   	6186.7    	8823.76   
8614.233037	6.63092e+06	7.05556e+06	8.01511e+06	8.06581e+06	15317.6   	22644.9   	5823.03   	6228.75   	8886.24   
8707.865994	6.68042e+06	7.11791e+06	8.10147e+06	8.15268e+06	15404.6   	22948     	5859.77   	6270.8    	8948.72   
8801.498951	6.72992e+06	7.18025e+06	8.18783e+06	8.23955e+06	15491.6   	23251     	5896.5    	6312.85   	9011.2    
8895.131908	6.77942e+06	7.24259e+06	8.2742e+06	8.32642e+06	15578.6   	23554     	5933.24   	6354.9    	9073.67   
8988.764865	6.82893e+06	7.30493e+06	8.36056e+06	8.41329e+06	15665.6   	23857     	5969.98   	6396.95   	9136.15   
9082.397822	6.87649e+06	7.3658e+06	8.44653e+06	8.49976e+06	15749.8   	24164.3   	6005.8    	6437.85   	9196.98   
9176.030779	6.9238e+06	7.42646e+06	8.53245e+06	8.58618e+06	15833.7   	24472.2   	6041.49   	6478.59   	9257.59   
9269.663736	6.9711e+06	7.48713e+06	8.61837e+06	8.6726e+06	15917.6   	24780     	6077.19   	6519.33   	9318.21   
9363.296693	7.0184e+06	7.5478e+06	8.70428e+06	8.75902e+06	16001.4   	25087.9   	6112.89   	6560.07   	9378.82   
9456.929650	7.06571e+06	7.60846e+06	8.7902e+06	8.84544e+06	16085.3   	25395.7   	6148.59   	6600.81   	9439.43   
9550.562607	7.1119e+06	7.66827e+06	8.87589e+06	8.93163e+06	16167.6   	25706.2   	6183.78   	6640.91   	9499.12   
9644.195564	7.15714e+06	7.72734e+06	8.96139e+06	9.01763e+06	16248.6   	26018.9   	6218.55   	6680.47   	9558.03   
9737.828521	7.20238e+06	7.78642e+06	9.04689e+06	9.10362e+06	16329.7   	26331.6   	6253.32   	6720.02   	9616.95   
9831.461478	7.24762e+06	7.84549e+06	9.13239e+06	9.18962e+06	16410.7   	26644.2   	6288.09   	6759.58   	9675.86   
9925.094434	7.29287e+06	7.90457e+06	9.21789e+06	9.27561e+06	16491.7   	26956.9   	6322.86   	6799.13   	9734.78   
10018.727391	7.33754e+06	7.9632e+06	9.30328e+06	9.36149e+06	16571.9   	27271     	6357.39   	6838.37   	9793.24   
10112.360348	7.37995e+06	8.02004e+06	9.38819e+06	9.44688e+06	16649.1   	27590.8   	6390.95   	6876.35   	9849.9    
10205.993305	7.42236e+06	8.07688e+06	9.47311e+06	9.53228e+06	16726.4   	27910.6   	6424.51   	6914.34   	9906.56   
10299.626262	7.46477e+06	8.13372e+06	9.55802e+06	9.61768e+06	16803.6   	28230.4   	6458.07   	6952.32   	9963.22   
10393.259219	7.50717e+06	8.19057e+06	9.64294e+06	9.70308e+06	16880.8   	28550.2   	6491.63   	6990.3    	10019.9   
10486.892176	7.54958e+06	8.24741e+06	9.72785e+06	9.78848e+06	16958     	28869.9   	6525.19   	7028.28   	10076.5   
10580.525133	7.59199e+06	8.30425e+06	9.81277e+06	9.87388e+06	17035.2   	29189.7   	6558.75   	7066.26   	10133.2   
10674.158090	7.6344e+06	8.36109e+06	9.89768e+06	9.95928e+06	17112.4   	29509.5   	6592.31   	7104.25   	10189.9   
10767.791047	7.6768e+06	8.41794e+06	9.9826e+06	1.00447e+07	17189.6   	29829.3   	6625.87   	7142.23   	10246.5   
10861.424004	7.71921e+06	8.47478e+06	1.00675e+07	1.01301e+07	17266.8   	30149.1   	6659.43   	7180.21   	10303.2   
10955.056961	7.76162e+06	8.53162e+06	1.01524e+07	1.02155e+07	17344.1   	30468.9   	6692.99   	7218.19   	10359.8   
11048.689918	7.80226e+06	8.58704e+06	1.0237e+07	1.03005e+07	17419     	30793.3   	6725.84   	7255.24   	10415.1   
11142.322875	7.84126e+06	8.64114e+06	1.03212e+07	1.03852e+07	17491.7   	31122     	6758.03   	7291.41   	10469.2   
11235.955831	7.88026e+06	8.69524e+06	1.04054e+07	1.04698e+07	17564.5   	31450.7   	6790.23   	7327.58   	10523.3   
11329.588788	7.91927e+06	8.74934e+06	1.04895e+07	1.05545e+07	17637.3   	31779.4   	6822.42   	7363.75   	10577.3   
11423.221745	7.95827e+06	8.80344e+06	1.05737e+07	1.06392e+07	17710.1   	32108.1   	6854.61   	7399.93   	10631.4   
11516.854702	7.99727e+06	8.85754e+06	1.06579e+07	1.07238e+07	17782.9   	32436.8   	6886.81   	7436.1    	10685.4   
11610.487659	8.03628e+06	8.91164e+06	1.07421e+07	1.08085e+07	17855.6   	32765.5   	6919      	7472.27   	10739.5   
11704.120616	8.07528e+06	8.96574e+06	1.08263e+07	1.08932e+07	17928.4   	33094.2   	6951.2    	7508.44   	10793.5   
11797.753573	8.11428e+06	9.01984e+06	1.09105e+07	1.09778e+07	18001.2   	33422.9   	6983.39   	7544.61   	10847.6   
11891.386530	8.15328e+06	9.07395e+06	1.09947e+07	1.10625e+07	18074     	33751.6   	7015.58   	7580.79   	10901.6   
11985.019487	8.19229e+06	9.12805e+06	1.10789e+07	1.11472e+07	18146.7   	34080.3   	7047.78   	7616.96   	10955.7   
12078.652444	8.22876e+06	9.18005e+06	1.11625e+07	1.12313e+07	18216.3   	34416.1   	7079.02   	7651.85   	11007.9   
12172.285401	8.26475e+06	9.23166e+06	1.12461e+07	1.13153e+07	18285.3   	34753.2   	7110.09   	7686.49   	11059.7   
12265.918358	8.30075e+06	9.28327e+06	1.13296e+07	1.13993e+07	18354.3   	35090.3   	7141.15   	7721.13   	11111.6   
12359.551315	8.33674e+06	9.33488e+06	1.14131e+07	1.14833e+07	18423.2   	35427.4   	7172.21   	7755.77   	11163.4   
12453.184272	8.37273e+06	9.38649e+06	1.14967e+07	1.15673e+07	18492.2   	35764.5   	7203.28   	7790.41   	11215.3   
12546.817228	8.40872e+06	9.4381e+06	1.15802e+07	1.16513e+07	18561.2   	36101.7   	7234.34   	7825.05   	11267.1   
12640.450185	8.44472e+06	9.48971e+06	1.16638e+07	1.17353e+07	18630.1   	36438.8   	7265.4    	7859.69   	11319     
12734.083142	8.48071e+06	9.54132e+06	1.17473e+07	1.18193e+07	18699.1   	36775.9   	7296.47   	7894.34   	11370.8   
12827.716099	8.5167e+06	9.59293e+06	1.18308e+07	1.19033e+07	18768.1   	37113     	7327.53   	7928.98   	11422.6   
12921.349056	8.55269e+06	9.64454e+06	1.19144e+07	1.19873e+07	18837     	37450.1   	7358.59   	7963.62   	11474.5   
13014.982013	8.58826e+06	9.69579e+06	1.19978e+07	1.20712e+07	18905.5   	37788.6   	7389.51   	7998.05   	11526     
13108.614970	8.62157e+06	9.74513e+06	1.20807e+07	1.21546e+07	18971.1   	38133.9   	7419.62   	8031.39   	11576     
13202.247927	8.65489e+06	9.79446e+06	1.21637e+07	1.2238e+07	19036.8   	38479.3   	7449.74   	8064.72   	11625.9   
13295.880884	8.68821e+06	9.8438e+06	1.22466e+07	1.23214e+07	19102.4   	38824.7   	7479.86   	8098.06   	11675.9   
13389.513841	8.72153e+06	9.89314e+06	1.23295e+07	1.24047e+07	19168.1   	39170     	7509.97   	8131.39   	11725.8   
13483.146798	8.75484e+06	9.94248e+06	1.24125e+07	1.24881e+07	19233.7   	39515.4   	7540.09   	8164.73   	11775.8   
13576.779755	8.78816e+06	9.99181e+06	1.24954e+07	1.25715e+07	19299.4   	39860.8   	7570.21   	8198.06   	11825.7   
13670.412712	8.82148e+06	1.00412e+07	1.25783e+07	1.26549e+07	19365.1   	40206.1   	7600.33   	8231.4    	11875.7   
13764.045669	8.85479e+06	1.00905e+07	1.26613e+07	1.27383e+07	19430.7   	40551.5   	7630.44   	8264.73   	11925.6   
13857.678625	8.88811e+06	1.01398e+07	1.27442e+07	1.28217e+07	19496.4   	40896.8   	7660.56   	8298.07   	11975.6   
13951.311582	8.92143e+06	1.01892e+07	1.28271e+07	1.29051e+07	19562     	41242.2   	7690.68   	8331.4    	12025.5   
14044.944539	8.9536e+06	1.02375e+07	1.29098e+07	1.29882e+07	19626.3   	41591.5   	7720.41   	8364.2    	12074.7   
14138.577496	8.98453e+06	1.02848e+07	1.29922e+07	1.3071e+07	19689     	41944.9   	7749.73   	8396.41   	12123     
14232.210453	9.01546e+06	1.0332e+07	1.30746e+07	1.31539e+07	19751.8   	42298.4   	7779.04   	8428.62   	12171.3   
14325.843410	9.04639e+06	1.03793e+07	1.3157e+07	1.32367e+07	19814.5   	42651.9   	7808.36   	8460.84   	12219.6   
14419.476367	9.07732e+06	1.04265e+07	1.32394e+07	1.33195e+07	19877.3   	43005.4   	7837.68   	8493.05   	12268     
14513.109324	9.10826e+06	1.04738e+07	1.33217e+07	1.34024e+07	19940     	43358.9   	7866.99   	8525.26   	12316.3   
14606.742281	9.13919e+06	1.05211e+07	1.34041e+07	1.34852e+07	20002.8   	43712.4   	7896.31   	8557.47   	12364.6   
14700.375238	9.17012e+06	1.05683e+07	1.34865e+07	1.3568e+07	20065.6   	44065.8   	7925.63   	8589.68   	12412.9   
14794.008195	9.20105e+06	1.06156e+07	1.35689e+07	1.36509e+07	20128.3   	44419.3   	7954.94   	8621.89   	12461.2   
14887.641152	9.23198e+06	1.06628e+07	1.36513e+07	1.37337e+07	20191.1   	44772.8   	7984.26   	8654.11   	12509.6   
14981.274109	9.26291e+06	1.07101e+07	1.37337e+07	1.38165e+07	20253.8   	45126.3   	8013.58   	8686.32   	12557.9   
15074.907066	9.29213e+06	1.07558e+07	1.38156e+07	1.38989e+07	20314.5   	45486.1   	8042.34   	8717.75   	12605.1   
15168.540022	9.32092e+06	1.08012e+07	1.38975e+07	1.39813e+07	20374.7   	45847.5   	8070.97   	8748.99   	12652     
15262.172979	9.34972e+06	1.08465e+07	1.39794e+07	1.40636e+07	20434.9   	46208.8   	8099.61   	8780.22   	12698.8   
15355.805936	9.37851e+06	1.08919e+07	1.40613e+07	1.41459e+07	20495     	46570.2   	8128.24   	8811.46   	12745.7   
15449.438893	9.4073e+06	1.09372e+07	1.41432e+07	1.42282e+07	20555.2   	46931.6   	8156.87   	8842.7    	12792.6   
15543.071850	9.43609e+06	1.09826e+07	1.4225e+07	1.43105e+07	20615.4   	47293     	8185.5    	8873.93   	12839.5   
15636.704807	9.46489e+06	1.10279e+07	1.43069e+07	1.43928e+07	20675.6   	47654.3   	8214.13   	8905.17   	12886.4   
15730.337764	9.49368e+06	1.10733e+07	1.43888e+07	1.44751e+07	20735.8   	48015.7   	8242.76   	8936.41   	12933.3   
