Energy (MeV/u)1	0 - [He-base] F.Hubert et al, AD&ND Tables 46(1990)1	Energy (MeV/u)2	1 - [H -base] J.F.Ziegler et al, Pergamon Press, NY (low energy)	Energy (MeV/u)3	2 - ATIMA 1.2  LS-theory (recommended for high energy)	Energy (MeV/u)4	3 - ATIMA 1.2  without LS-correction	Energy (MeV/u)5	4 - electrical component of [1] - J.F.Ziegler et al	Energy (MeV/u)6	5 - nuclear component of [1] - J.F.Ziegler et al	
0.001000	0.817844  	0.001000	0.16202   	0.001000	0.133193  	0.001000	0.133193  	0.001000	0.113105  	0.001000	0.0489147 	
0.002000	0.887789  	0.002000	0.203748  	0.002000	0.166272  	0.002000	0.166272  	0.002000	0.156663  	0.002000	0.0470843 	
0.005000	1.07017   	0.005000	0.279825  	0.005000	0.227286  	0.005000	0.227286  	0.005000	0.24099   	0.005000	0.0388348 	
0.008000	1.21665   	0.008000	0.333529  	0.008000	0.271339  	0.008000	0.271339  	0.008000	0.300563  	0.008000	0.0329661 	
0.010000	1.30084   	0.010000	0.363855  	0.010000	0.296567  	0.010000	0.296567  	0.010000	0.333798  	0.010000	0.0300574 	
0.015000	1.51476   	0.015000	0.428733  	0.015000	0.351263  	0.015000	0.351263  	0.015000	0.403875  	0.015000	0.024858  	
0.020000	1.68581   	0.020000	0.48373   	0.020000	0.398284  	0.020000	0.398284  	0.020000	0.462347  	0.020000	0.0213837 	
0.025000	1.87471   	0.025000	0.533639  	0.025000	0.443167  	0.025000	0.443167  	0.025000	0.514767  	0.025000	0.0188729 	
0.030000	2.03485   	0.030000	0.580579  	0.030000	0.53084   	0.030000	0.53084   	0.030000	0.563619  	0.030000	0.0169595 	
0.035000	2.16651   	0.035000	0.625528  	0.035000	0.591229  	0.035000	0.591229  	0.035000	0.610083  	0.035000	0.0154451 	
0.040000	2.27028   	0.040000	0.667642  	0.040000	0.63604   	0.040000	0.63604   	0.040000	0.653431  	0.040000	0.0142117 	
0.045000	2.34725   	0.045000	0.706694  	0.045000	0.673757  	0.045000	0.673757  	0.045000	0.69351   	0.045000	0.0131846 	
0.050000	2.39899   	0.050000	0.742738  	0.050000	0.707998  	0.050000	0.707998  	0.050000	0.730424  	0.050000	0.012314  	
0.055000	2.50342   	0.055000	0.77594   	0.055000	0.740004  	0.055000	0.740004  	0.055000	0.764375  	0.055000	0.0115652 	
0.060000	2.59237   	0.060000	0.806501  	0.060000	0.770139  	0.060000	0.770139  	0.060000	0.795588  	0.060000	0.0109131 	
0.070000	2.72824   	0.070000	0.860494  	0.070000	0.825106  	0.070000	0.825106  	0.070000	0.850664  	0.070000	0.00983032	
0.080000	2.87405   	0.080000	0.906177  	0.080000	0.873221  	0.080000	0.873221  	0.080000	0.897212  	0.080000	0.00896477	
0.090000	2.98859   	0.090000	0.944776  	0.090000	0.9149    	0.090000	0.9149    	0.090000	0.936522  	0.090000	0.00825485	
0.100000	3.08046   	0.100000	0.978382  	0.100000	0.950656  	0.100000	0.950656  	0.100000	0.970793  	0.100000	0.00758931	
0.120000	3.13624   	0.120000	1.03286   	0.120000	1.00732   	0.120000	1.00732   	0.120000	1.0262    	0.120000	0.0066583 	
0.140000	3.15841   	0.140000	1.07075   	0.140000	1.04801   	0.140000	1.04801   	0.140000	1.0648    	0.140000	0.00594907	
0.160000	3.16625   	0.160000	1.09665   	0.160000	1.07682   	0.160000	1.07682   	0.160000	1.09126   	0.160000	0.00538883	
0.180000	3.16558   	0.180000	1.10891   	0.180000	1.09697   	0.180000	1.09697   	0.180000	1.10397   	0.180000	0.00493387	
0.200000	3.17249   	0.200000	1.11534   	0.200000	1.11086   	0.200000	1.11086   	0.200000	1.11078   	0.200000	0.00455624	
0.250000	3.11458   	0.250000	1.12068   	0.250000	1.12862   	0.250000	1.12862   	0.250000	1.11684   	0.250000	0.00384114	
0.300000	3.12736   	0.300000	1.13239   	0.300000	1.13347   	0.300000	1.13347   	0.300000	1.12905   	0.300000	0.00333449	
0.350000	3.15079   	0.350000	1.14936   	0.350000	1.13241   	0.350000	1.13241   	0.350000	1.14641   	0.350000	0.00295492	
0.400000	3.14529   	0.400000	1.1531    	0.400000	1.12846   	0.400000	1.12846   	0.400000	1.15044   	0.400000	0.00265891	
0.450000	3.12792   	0.450000	1.15093   	0.450000	1.13304   	0.450000	1.13304   	0.450000	1.14851   	0.450000	0.002421  	
0.500000	3.11915   	0.500000	1.1514    	0.500000	1.13356   	0.500000	1.13356   	0.500000	1.14917   	0.500000	0.0022252 	
0.600000	2.98055   	0.600000	1.15265   	0.600000	1.12644   	0.600000	1.12644   	0.600000	1.15073   	0.600000	0.00192111	
0.700000	2.82485   	0.700000	1.14784   	0.700000	1.10989   	0.700000	1.10989   	0.700000	1.14615   	0.700000	0.00169506	
0.800000	2.76476   	0.800000	1.13729   	0.800000	1.08962   	0.800000	1.08962   	0.800000	1.13577   	0.800000	0.00151985	
0.900000	2.69837   	0.900000	1.12378   	0.900000	1.06824   	0.900000	1.06824   	0.900000	1.1224    	0.900000	0.00137974	
1.000000	2.62857   	1.000000	1.10897   	1.000000	1.0464    	1.000000	1.0464    	1.000000	1.10771   	1.000000	0.00126492	
1.250000	2.42931   	1.250000	1.05697   	1.250000	0.9907    	1.250000	0.9907    	1.250000	1.05592   	1.250000	0.00105116	
1.500000	2.22414   	1.500000	0.988381  	1.500000	0.934579  	1.500000	0.934579  	1.500000	0.987478  	1.500000	0.000902679	
1.750000	2.04905   	1.750000	0.928915  	1.750000	0.885282  	1.750000	0.885282  	1.750000	0.928122  	1.750000	0.000793081	
2.000000	1.88615   	2.000000	0.868646  	2.000000	0.841157  	2.000000	0.841157  	2.000000	0.867937  	2.000000	0.000708618	
2.250000	1.75065   	2.250000	0.817278  	2.250000	0.801309  	2.250000	0.801309  	2.250000	0.816637  	2.250000	0.000641386	
2.500000	1.63039   	2.500000	0.774389  	2.500000	0.765136  	2.500000	0.765136  	2.500000	0.773802  	2.500000	0.000586508	
3.000000	1.45291   	3.000000	0.705058  	3.000000	0.702049  	3.000000	0.702049  	3.000000	0.704556  	3.000000	0.000502112	
3.500000	1.3119    	3.500000	0.649702  	3.500000	0.649032  	3.500000	0.649032  	3.500000	0.649262  	3.500000	0.00044006	
4.000000	1.19715   	4.000000	0.604108  	4.000000	0.603968  	4.000000	0.603968  	4.000000	0.603716  	4.000000	0.000392388	
4.500000	1.1019    	4.500000	0.565641  	4.500000	0.565248  	4.500000	0.565248  	4.500000	0.565286  	4.500000	0.000354541	
5.000000	1.02152   	5.000000	0.532543  	5.000000	0.531646  	5.000000	0.531646  	5.000000	0.53222   	5.000000	0.000323718	
5.500000	0.952754  	5.500000	0.503664  	5.500000	0.502214  	5.500000	0.502214  	5.500000	0.503366  	5.500000	0.000298097	
6.000000	0.893219  	6.000000	0.478192  	6.000000	0.476219  	6.000000	0.476219  	6.000000	0.477915  	6.000000	0.000276442	
6.500000	0.841152  	6.500000	0.455525  	6.500000	0.453085  	6.500000	0.453085  	6.500000	0.455267  	6.500000	0.000257883	
7.000000	0.795214  	7.000000	0.435203  	7.000000	0.432358  	7.000000	0.432358  	7.000000	0.434961  	7.000000	0.00024179	
7.500000	0.754368  	7.500000	0.416866  	7.500000	0.413673  	7.500000	0.413673  	7.500000	0.416638  	7.500000	0.000227692	
8.000000	0.717801  	8.000000	0.400226  	8.000000	0.396735  	8.000000	0.396735  	8.000000	0.40001   	8.000000	0.000215234	
8.500000	0.684864  	8.500000	0.385049  	8.500000	0.381304  	8.500000	0.381304  	8.500000	0.384845  	8.500000	0.00020414	
9.000000	0.655036  	9.000000	0.371144  	9.000000	0.367182  	9.000000	0.367182  	9.000000	0.37095   	9.000000	0.000194195	
9.500000	0.62789   	9.500000	0.358352  	9.500000	0.354204  	9.500000	0.354204  	9.500000	0.358167  	9.500000	0.000185225	
10.000000	0.603074  	10.000000	0.348836  	10.000000	0.342232  	10.000000	0.342232  	10.000000	0.348659  	10.000000	0.000177091	
11.000000	0.559313  	11.000000	0.329678  	11.000000	0.321981  	11.000000	0.322332  	11.000000	0.329515  	11.000000	0.000162895	
12.000000	0.521929  	12.000000	0.312379  	12.000000	0.304295  	12.000000	0.304876  	12.000000	0.312228  	12.000000	0.000150914	
13.000000	0.489605  	13.000000	0.296756  	13.000000	0.288708  	13.000000	0.289438  	13.000000	0.296615  	13.000000	0.000140658	
14.000000	0.461366  	14.000000	0.282619  	14.000000	0.274852  	14.000000	0.275679  	14.000000	0.282487  	14.000000	0.000131775	
15.000000	0.436473  	15.000000	0.269792  	15.000000	0.262444  	15.000000	0.263334  	15.000000	0.269668  	15.000000	0.000124  	
16.000000	0.414356  	16.000000	0.258118  	16.000000	0.251273  	16.000000	0.252192  	16.000000	0.258001  	16.000000	0.000117137	
17.000000	0.394568  	17.000000	0.247458  	17.000000	0.241161  	17.000000	0.242081  	17.000000	0.247347  	17.000000	0.00011103	
18.000000	0.376755  	18.000000	0.237692  	18.000000	0.231944  	18.000000	0.232861  	18.000000	0.237587  	18.000000	0.000105559	
19.000000	0.360631  	19.000000	0.228717  	19.000000	0.223508  	19.000000	0.224417  	19.000000	0.228616  	19.000000	0.000100629	
20.000000	0.345963  	20.000000	0.220443  	20.000000	0.215765  	20.000000	0.216652  	20.000000	0.220347  	20.000000	9.61611e-05	
21.000000	0.332559  	21.000000	0.212794  	21.000000	0.208603  	21.000000	0.209457  	21.000000	0.212702  	21.000000	9.20926e-05	
22.000000	0.320261  	22.000000	0.205702  	22.000000	0.201973  	22.000000	0.202792  	22.000000	0.205614  	22.000000	8.83712e-05	
23.000000	0.308934  	23.000000	0.19911   	23.000000	0.195844  	23.000000	0.19663   	23.000000	0.199025  	23.000000	8.49537e-05	
24.000000	0.298465  	24.000000	0.192966  	24.000000	0.190136  	24.000000	0.190892  	24.000000	0.192885  	24.000000	8.18036e-05	
25.000000	0.288761  	25.000000	0.187229  	25.000000	0.184808  	25.000000	0.185534  	25.000000	0.18715   	25.000000	7.88903e-05	
27.000000	0.271325  	27.000000	0.176818  	27.000000	0.175154  	27.000000	0.175812  	27.000000	0.176745  	27.000000	7.3673e-05	
29.000000	0.256096  	29.000000	0.167623  	29.000000	0.166646  	29.000000	0.167221  	29.000000	0.167554  	29.000000	6.91336e-05	
31.000000	0.242673  	31.000000	0.159441  	31.000000	0.158818  	31.000000	0.159289  	31.000000	0.159375  	31.000000	6.51461e-05	
33.000000	0.230749  	33.000000	0.152113  	33.000000	0.151562  	33.000000	0.151938  	33.000000	0.152051  	33.000000	6.16141e-05	
35.000000	0.220082  	35.000000	0.145511  	35.000000	0.145045  	35.000000	0.145337  	35.000000	0.145453  	35.000000	5.84628e-05	
38.000000	0.206027  	38.000000	0.136751  	38.000000	0.136416  	38.000000	0.136601  	38.000000	0.136696  	38.000000	5.43229e-05	
41.000000	0.193877  	41.000000	0.129121  	41.000000	0.128918  	41.000000	0.129011  	41.000000	0.12907   	41.000000	5.07553e-05	
44.000000	0.183263  	44.000000	0.122416  	44.000000	0.12231   	44.000000	0.122349  	44.000000	0.122368  	44.000000	4.76474e-05	
47.000000	0.173907  	47.000000	0.116474  	47.000000	0.116471  	47.000000	0.116451  	47.000000	0.116429  	47.000000	4.49144e-05	
50.000000	0.165593  	50.000000	0.111172  	50.000000	0.111256  	50.000000	0.11119   	50.000000	0.11113   	50.000000	4.24915e-05	
55.000000	0.153612  	55.000000	0.103497  	55.000000	0.103684  	55.000000	0.103573  	55.000000	0.103458  	55.000000	3.90094e-05	
60.000000	0.143492  	60.000000	0.0969846 	60.000000	0.0972514 	60.000000	0.0971049 	60.000000	0.0969485 	60.000000	3.60773e-05	
65.000000	0.134822  	65.000000	0.0913863 	65.000000	0.0917027 	65.000000	0.0915397 	65.000000	0.0913528 	65.000000	3.35728e-05	
70.000000	0.127307  	70.000000	0.0865208 	70.000000	0.0868904 	70.000000	0.0866971 	70.000000	0.0864894 	70.000000	3.14073e-05	
75.000000	0.120726  	75.000000	0.0822515 	75.000000	0.0826422 	75.000000	0.0824424 	75.000000	0.082222  	75.000000	2.95157e-05	
80.000000	0.114911  	80.000000	0.0784742 	80.000000	0.0788908 	80.000000	0.078673  	80.000000	0.0784464 	80.000000	2.78482e-05	
85.000000	0.109734  	85.000000	0.0751077 	85.000000	0.0755296 	85.000000	0.0753091 	85.000000	0.0750813 	85.000000	2.63668e-05	
90.000000	0.105093  	90.000000	0.0720877 	90.000000	0.0725222 	90.000000	0.0722876 	90.000000	0.0720627 	90.000000	2.50416e-05	
95.000000	0.100906  	95.000000	0.069363  	95.000000	0.0697929 	95.000000	0.0695579 	95.000000	0.0693391 	95.000000	2.38486e-05	
100.000000	0.0971093 	100.000000	0.0668917 	100.000000	0.0673147 	100.000000	0.0670793 	100.000000	0.066869  	100.000000	2.27689e-05	
105.000000	0.093649  	105.000000	0.0646399 	105.000000	0.065053  	105.000000	0.0648182 	105.000000	0.0646181 	105.000000	2.17868e-05	
110.000000	0.0904814 	110.000000	0.0625793 	110.000000	0.0629901 	110.000000	0.0627468 	110.000000	0.0625584 	110.000000	2.08894e-05	
115.000000	0.0875699 	115.000000	0.0606863 	115.000000	0.0610881 	115.000000	0.060842  	115.000000	0.0606662 	115.000000	2.00661e-05	
120.000000	0.084884  	120.000000	0.0589411 	120.000000	0.0593284 	120.000000	0.0590842 	120.000000	0.0589218 	120.000000	1.9308e-05	
125.000000	0.0823978 	125.000000	0.0573269 	125.000000	0.0577008 	125.000000	0.057457  	125.000000	0.0573083 	125.000000	1.86074e-05	
130.000000	0.0800893 	130.000000	0.0558294 	130.000000	0.0561891 	130.000000	0.0559461 	130.000000	0.0558114 	130.000000	1.79581e-05	
135.000000	0.0779396 	135.000000	0.0544363 	135.000000	0.0547816 	135.000000	0.0545396 	135.000000	0.0544189 	135.000000	1.73544e-05	
140.000000	0.0759325 	140.000000	0.053137  	140.000000	0.0534679 	140.000000	0.0532267 	140.000000	0.0531202 	140.000000	1.67917e-05	
145.000000	0.0740538 	145.000000	0.0519222 	145.000000	0.0522388 	145.000000	0.0519986 	145.000000	0.051906  	145.000000	1.62658e-05	
150.000000	0.0722913 	150.000000	0.050784  	150.000000	0.0510864 	150.000000	0.0508471 	150.000000	0.0507682 	150.000000	1.57733e-05	
155.000000	0.0698096 	155.000000	0.0497152 	155.000000	0.0500036 	155.000000	0.0497653 	155.000000	0.0496999 	155.000000	1.5311e-05	
160.000000	0.068355  	160.000000	0.0487098 	160.000000	0.0489845 	160.000000	0.048747  	160.000000	0.0486949 	160.000000	1.48761e-05	
165.000000	0.0669834 	165.000000	0.0477621 	165.000000	0.0480234 	165.000000	0.0477869 	165.000000	0.0477476 	165.000000	1.44663e-05	
170.000000	0.0656876 	170.000000	0.0468673 	170.000000	0.0471156 	170.000000	0.04688   	170.000000	0.0468533 	170.000000	1.40794e-05	
175.000000	0.0644615 	175.000000	0.0460212 	175.000000	0.0462567 	175.000000	0.0460221 	175.000000	0.0460075 	175.000000	1.37135e-05	
180.000000	0.0632995 	180.000000	0.0452198 	180.000000	0.045443  	180.000000	0.0452094 	180.000000	0.0452065 	180.000000	1.3367e-05	
185.000000	0.0621967 	185.000000	0.0444597 	185.000000	0.044671  	185.000000	0.0444382 	185.000000	0.0444467 	185.000000	1.30383e-05	
190.000000	0.0611486 	190.000000	0.0437378 	190.000000	0.0439375 	190.000000	0.0437056 	190.000000	0.0437251 	190.000000	1.2726e-05	
195.000000	0.0601512 	195.000000	0.0430512 	195.000000	0.0432397 	195.000000	0.0430088 	195.000000	0.0430388 	195.000000	1.2429e-05	
200.000000	0.0592009 	200.000000	0.0423975 	200.000000	0.0425752 	200.000000	0.0423452 	200.000000	0.0423853 	200.000000	1.2146e-05	
210.000000	0.0574285 	210.000000	0.0411795 	210.000000	0.0413369 	210.000000	0.0411086 	210.000000	0.0411679 	210.000000	1.16187e-05	
220.000000	0.0558086 	220.000000	0.0400679 	220.000000	0.0402064 	220.000000	0.0399798 	220.000000	0.0400567 	220.000000	1.11371e-05	
230.000000	0.0543222 	230.000000	0.0390493 	230.000000	0.0391706 	230.000000	0.0389456 	230.000000	0.0390386 	230.000000	1.06953e-05	
240.000000	0.0529533 	240.000000	0.0381126 	240.000000	0.0382177 	240.000000	0.0379945 	240.000000	0.0381023 	240.000000	1.02886e-05	
250.000000	0.0516884 	250.000000	0.0372484 	250.000000	0.0373396 	250.000000	0.0371172 	250.000000	0.0372385 	250.000000	9.91298e-06	
260.000000	0.0505162 	260.000000	0.0364486 	260.000000	0.0365242 	260.000000	0.0363055 	260.000000	0.036439  	260.000000	9.56486e-06	
270.000000	0.0494266 	270.000000	0.0357064 	270.000000	0.0357659 	270.000000	0.0355525 	270.000000	0.0356971 	270.000000	9.24132e-06	
280.000000	0.0484114 	280.000000	0.0350157 	280.000000	0.0350647 	280.000000	0.0348522 	280.000000	0.0350068 	280.000000	8.93982e-06	
290.000000	0.0474631 	290.000000	0.0343716 	290.000000	0.0344108 	290.000000	0.0341993 	290.000000	0.0343629 	290.000000	8.65814e-06	
300.000000	0.0465754 	300.000000	0.0337694 	300.000000	0.0337996 	300.000000	0.0335894 	300.000000	0.033761  	300.000000	8.39437e-06	
310.000000	0.0457427 	310.000000	0.0332054 	310.000000	0.0332276 	310.000000	0.0330185 	310.000000	0.0331972 	310.000000	8.14682e-06	
320.000000	0.04496   	320.000000	0.032676  	320.000000	0.0326911 	320.000000	0.032483  	320.000000	0.0326681 	320.000000	7.91404e-06	
330.000000	0.044223  	330.000000	0.0321782 	330.000000	0.0321868 	330.000000	0.0319798 	330.000000	0.0321705 	330.000000	7.69471e-06	
340.000000	0.043528  	340.000000	0.0317094 	340.000000	0.0317125 	340.000000	0.0315064 	340.000000	0.0317019 	340.000000	7.48769e-06	
350.000000	0.0428713 	350.000000	0.0312671 	350.000000	0.0312656 	350.000000	0.0310601 	350.000000	0.0312598 	350.000000	7.29195e-06	
360.000000	0.0422501 	360.000000	0.0308492 	360.000000	0.0308419 	360.000000	0.0306388 	360.000000	0.0308421 	360.000000	7.1066e-06	
370.000000	0.0416615 	370.000000	0.0304539 	370.000000	0.0304401 	370.000000	0.0302405 	370.000000	0.0304469 	370.000000	6.9308e-06	
380.000000	0.0411032 	380.000000	0.0300793 	380.000000	0.0300614 	380.000000	0.0298636 	380.000000	0.0300725 	380.000000	6.76383e-06	
390.000000	0.0405728 	390.000000	0.0297239 	390.000000	0.0297038 	390.000000	0.0295064 	390.000000	0.0297173 	390.000000	6.60504e-06	
400.000000	0.0400685 	400.000000	0.0293864 	400.000000	0.0293644 	400.000000	0.0291675 	400.000000	0.02938   	400.000000	6.45382e-06	
410.000000	0.0395883 	410.000000	0.0290655 	410.000000	0.0290416 	410.000000	0.0288457 	410.000000	0.0290592 	410.000000	6.30964e-06	
420.000000	0.0391307 	420.000000	0.02876   	420.000000	0.0287347 	420.000000	0.0285396 	420.000000	0.0287539 	420.000000	6.17202e-06	
430.000000	0.0386942 	430.000000	0.028469  	430.000000	0.0284428 	430.000000	0.0282483 	430.000000	0.0284629 	430.000000	6.04051e-06	
440.000000	0.0382773 	440.000000	0.0281913 	440.000000	0.028165  	440.000000	0.0279708 	440.000000	0.0281854 	440.000000	5.91471e-06	
450.000000	0.0378788 	450.000000	0.0279263 	450.000000	0.0278997 	450.000000	0.0277062 	450.000000	0.0279205 	450.000000	5.79424e-06	
460.000000	0.0374977 	460.000000	0.0276731 	460.000000	0.0276453 	460.000000	0.0274537 	460.000000	0.0276674 	460.000000	5.67878e-06	
470.000000	0.0371328 	470.000000	0.0274309 	470.000000	0.0274017 	470.000000	0.0272125 	470.000000	0.0274254 	470.000000	5.56801e-06	
480.000000	0.0367832 	480.000000	0.0271992 	480.000000	0.02717   	480.000000	0.0269825 	480.000000	0.0271937 	480.000000	5.46165e-06	
490.000000	0.036448  	490.000000	0.0269772 	490.000000	0.0269499 	490.000000	0.0267631 	490.000000	0.0269718 	490.000000	5.35943e-06	
500.000000	0.0361263 	500.000000	0.0267644 	500.000000	0.0267396 	500.000000	0.026553  	500.000000	0.0267591 	500.000000	5.26112e-06	
520.000000	0.0355207 	520.000000	0.0263644 	520.000000	0.0263442 	520.000000	0.0261585 	520.000000	0.0263593 	520.000000	5.07535e-06	
540.000000	0.0349611 	540.000000	0.0259955 	540.000000	0.0259803 	540.000000	0.0257955 	540.000000	0.0259906 	540.000000	4.90273e-06	
560.000000	0.0344426 	560.000000	0.0256543 	560.000000	0.0256442 	560.000000	0.0254605 	560.000000	0.0256496 	560.000000	4.7419e-06	
580.000000	0.0339613 	580.000000	0.0253383 	580.000000	0.0253327 	580.000000	0.0251507 	580.000000	0.0253337 	580.000000	4.59169e-06	
600.000000	0.0335137 	600.000000	0.0250448 	600.000000	0.0250436 	600.000000	0.0248637 	600.000000	0.0250403 	600.000000	4.45105e-06	
620.000000	0.0330966 	620.000000	0.0247718 	620.000000	0.0247755 	620.000000	0.0245973 	620.000000	0.0247674 	620.000000	4.31908e-06	
640.000000	0.0327073 	640.000000	0.0245174 	640.000000	0.0245269 	640.000000	0.0243496 	640.000000	0.0245132 	640.000000	4.19501e-06	
660.000000	0.0323435 	660.000000	0.0242799 	660.000000	0.0242957 	660.000000	0.0241189 	660.000000	0.0242758 	660.000000	4.07814e-06	
680.000000	0.0320029 	680.000000	0.024058  	680.000000	0.0240798 	680.000000	0.0239037 	680.000000	0.024054  	680.000000	3.96784e-06	
700.000000	0.0316838 	700.000000	0.0238503 	700.000000	0.0238783 	700.000000	0.0237026 	700.000000	0.0238464 	700.000000	3.86357e-06	
