*Energy (MeV/u)1	0 - [He-base] F.Hubert et al, AD&ND Tables 46(1990)1	Energy (MeV/u)2	1 - [H -base] J.F.Ziegler et al, Pergamon Press, NY (low energy)	Energy (MeV/u)3	2 - ATIMA 1.2  LS-theory (recommended for high energy)	Energy (MeV/u)4	3 - ATIMA 1.2  without LS-correction	Energy (MeV/u)5	4 - Range straggling - method [0] - LISE	Energy (MeV/u)6	5 - Range straggling - method [1] - Atima	Energy (MeV/u)7	6 - Lateral range - method [0] - LISE	Energy (MeV/u)8	7 - Lateral range - method [1] - Atima	Energy (MeV/u)9	8 - Lateral range - method [2] - PDG	
0.001000	0.0768668 	0.001000	0.0768668 	0.001000	0.104131  	0.001000	0.104131  	0.001000	0         	0.001000	0         	0.001000	0.000529483	0.001000	0.000799277	0.001000	0.000469151
0.002000	0.163289  	0.002000	0.153734  	0.002000	0.208262  	0.002000	0.208262  	0.002000	0.0187488 	0.002000	0.0187488 	0.002000	0.00155095	0.002000	0.00226228	0.002000	0.00140854
0.005000	0.350705  	0.005000	0.320427  	0.005000	0.434796  	0.005000	0.434796  	0.005000	0.0211625 	0.005000	0.0211625 	0.005000	0.00457296	0.005000	0.00652067	0.005000	0.00421495
0.008000	0.49483   	0.008000	0.448617  	0.008000	0.608806  	0.008000	0.608806  	0.008000	0.0212246 	0.008000	0.0212246 	0.008000	0.0074511 	0.008000	0.0104941 	0.008000	0.00691947
0.010000	0.57844   	0.010000	0.522981  	0.010000	0.709498  	0.010000	0.709498  	0.010000	0.0214224 	0.010000	0.0214224 	0.010000	0.0093331 	0.010000	0.01307   	0.010000	0.0086963
0.015000	0.76077   	0.015000	0.685151  	0.015000	0.92825   	0.015000	0.92825   	0.015000	0.0223459 	0.015000	0.0223459 	0.015000	0.0139704 	0.015000	0.0191269 	0.015000	0.0130913
0.020000	0.918077  	0.020000	0.825065  	0.020000	1.11599   	0.020000	1.11599   	0.020000	0.023511  	0.020000	0.023511  	0.020000	0.0185333 	0.020000	0.0245042 	0.020000	0.0174316
0.025000	1.05868   	0.025000	0.950123  	0.025000	1.2828    	0.025000	1.2828    	0.025000	0.024686  	0.025000	0.024686  	0.025000	0.023049  	0.025000	0.0293853 	0.025000	0.0217377
0.030000	1.18689   	0.030000	1.06416   	0.030000	1.42569   	0.030000	1.42569   	0.030000	0.0256202 	0.030000	0.0256202 	0.030000	0.0272857 	0.030000	0.0336449 	0.030000	0.0257758
0.035000	1.30526   	0.035000	1.16944   	0.035000	1.54932   	0.035000	1.54932   	0.035000	0.0263378 	0.035000	0.0263378 	0.035000	0.0310618 	0.035000	0.0373747 	0.035000	0.0295557
0.040000	1.41568   	0.040000	1.26765   	0.040000	1.6622    	0.040000	1.6622    	0.040000	0.0269622 	0.040000	0.0269622 	0.040000	0.0345328 	0.040000	0.0408084 	0.040000	0.0332182
0.045000	1.52004   	0.045000	1.36047   	0.045000	1.76781   	0.045000	1.76781   	0.045000	0.0275316 	0.045000	0.0275316 	0.045000	0.0378595 	0.045000	0.0440573 	0.045000	0.0365322
0.050000	1.62018   	0.050000	1.44954   	0.050000	1.86776   	0.050000	1.86776   	0.050000	0.0280589 	0.050000	0.0279078 	0.050000	0.0410676 	0.050000	0.0471529 	0.050000	0.0397571
0.055000	1.7168    	0.055000	1.53547   	0.055000	1.96301   	0.055000	1.96301   	0.055000	0.0285505 	0.055000	0.0281729 	0.055000	0.0441832 	0.055000	0.0501419 	0.055000	0.0428963
0.060000	1.81039   	0.060000	1.61871   	0.060000	2.05422   	0.060000	2.05422   	0.060000	0.0290108 	0.060000	0.0284206 	0.060000	0.0472182 	0.060000	0.053038  	0.060000	0.0459612
0.070000	1.99004   	0.070000	1.7785    	0.070000	2.22664   	0.070000	2.22664   	0.070000	0.029853  	0.070000	0.028874  	0.070000	0.0530878 	0.070000	0.058651  	0.070000	0.0518968
0.080000	2.16165   	0.080000	1.93113   	0.080000	2.38838   	0.080000	2.38838   	0.080000	0.0306122 	0.080000	0.0292846 	0.080000	0.0587515 	0.080000	0.0641206 	0.080000	0.0576292
0.090000	2.32698   	0.090000	2.07819   	0.090000	2.54187   	0.090000	2.54187   	0.090000	0.0313092 	0.090000	0.0296645 	0.090000	0.0639498 	0.090000	0.0691945 	0.090000	0.0628922
0.100000	2.48738   	0.100000	2.22085   	0.100000	2.68892   	0.100000	2.68892   	0.100000	0.0319598 	0.100000	0.0300221 	0.100000	0.068413  	0.100000	0.0735904 	0.100000	0.0674006
0.120000	2.79714   	0.120000	2.49636   	0.120000	2.96888   	0.120000	2.96888   	0.120000	0.0331656 	0.120000	0.0306939 	0.120000	0.0761833 	0.120000	0.0813338 	0.120000	0.0752356
0.140000	3.09623   	0.140000	2.76239   	0.140000	3.23583   	0.140000	3.23583   	0.140000	0.0342929 	0.140000	0.0313337 	0.140000	0.0830353 	0.140000	0.0882804 	0.140000	0.0821202
0.160000	3.38688   	0.160000	3.02089   	0.160000	3.49442   	0.160000	3.49442   	0.160000	0.0353784 	0.160000	0.0319606 	0.160000	0.0892436 	0.160000	0.0946434 	0.160000	0.0883511
0.180000	3.672     	0.180000	3.27449   	0.180000	3.74761   	0.180000	3.74761   	0.180000	0.0364444 	0.180000	0.0325863 	0.180000	0.0949026 	0.180000	0.100486  	0.180000	0.0940189
0.200000	3.9537    	0.200000	3.52504   	0.200000	3.99736   	0.200000	3.99736   	0.200000	0.0375045 	0.200000	0.0332181 	0.200000	0.100087  	0.200000	0.105878  	0.200000	0.0992181
0.250000	4.64976   	0.250000	4.14414   	0.250000	4.61433   	0.250000	4.61433   	0.250000	0.0401773 	0.250000	0.0348485 	0.250000	0.112782  	0.250000	0.119098  	0.250000	0.111916
0.300000	5.33952   	0.300000	4.75763   	0.300000	5.22857   	0.300000	5.22857   	0.300000	0.0429215 	0.300000	0.0365703 	0.300000	0.124759  	0.300000	0.131588  	0.300000	0.12391
0.350000	6.02499   	0.350000	5.36731   	0.350000	5.84493   	0.350000	5.84493   	0.350000	0.0457499 	0.350000	0.0383855 	0.350000	0.135737  	0.350000	0.143075  	0.350000	0.134886
0.400000	6.70811   	0.400000	5.9749    	0.400000	6.46276   	0.400000	6.46276   	0.400000	0.0486195 	0.400000	0.0402607 	0.400000	0.146456  	0.400000	0.154234  	0.400000	0.145613
0.450000	7.38377   	0.450000	6.57585   	0.450000	7.0809    	0.450000	7.0809    	0.450000	0.0514937 	0.450000	0.0421658 	0.450000	0.156656  	0.450000	0.164861  	0.450000	0.15582
0.500000	8.05499   	0.500000	7.17286   	0.500000	7.7016    	0.500000	7.7016    	0.500000	0.0543892 	0.500000	0.0441066 	0.500000	0.166541  	0.500000	0.175135  	0.500000	0.165713
0.600000	9.38303   	0.600000	8.35405   	0.600000	8.95636   	0.600000	8.95636   	0.600000	0.0602838 	0.600000	0.0481056 	0.600000	0.185159  	0.600000	0.194465  	0.600000	0.184347
0.700000	10.7048   	0.700000	9.52966   	0.700000	10.2376   	0.700000	10.2376   	0.700000	0.0663907 	0.700000	0.052293  	0.700000	0.202674  	0.700000	0.212629  	0.700000	0.20188
0.800000	12.0542   	0.800000	10.7299   	0.800000	11.5498   	0.800000	11.5498   	0.800000	0.0727303 	0.800000	0.0566666 	0.800000	0.219385  	0.800000	0.229969  	0.800000	0.218614
0.900000	13.443    	0.900000	11.9651   	0.900000	12.8947   	0.900000	12.8947   	0.900000	0.0793014 	0.900000	0.0612138 	0.900000	0.235325  	0.900000	0.246491  	0.900000	0.23458
1.000000	14.8739   	1.000000	13.2378   	1.000000	14.2736   	1.000000	14.2736   	1.000000	0.0861046 	1.000000	0.0659255 	1.000000	0.250767  	1.000000	0.262507  	1.000000	0.25005
1.250000	18.6512   	1.250000	16.5974   	1.250000	17.8785   	1.250000	17.8785   	1.250000	0.104176  	1.250000	0.0784121 	1.250000	0.286345  	1.250000	0.29952   	1.250000	0.285715
1.500000	22.7231   	1.500000	20.2192   	1.500000	21.7304   	1.500000	21.7304   	1.500000	0.123982  	1.500000	0.0919961 	1.500000	0.318326  	1.500000	0.332976  	1.500000	0.317805
1.750000	27.1277   	1.750000	24.1367   	1.750000	25.8281   	1.750000	25.8281   	1.750000	0.145423  	1.750000	0.106558  	1.750000	0.348793  	1.750000	0.364923  	1.750000	0.34841
2.000000	31.8578   	2.000000	28.3438   	2.000000	30.1695   	2.000000	30.1695   	2.000000	0.168428  	2.000000	0.122023  	2.000000	0.378608  	2.000000	0.396195  	2.000000	0.378396
2.250000	36.8978   	2.250000	32.8265   	2.250000	34.7538   	2.250000	34.7538   	2.250000	0.192976  	2.250000	0.138357  	2.250000	0.408184  	2.250000	0.427201  	2.250000	0.408175
2.500000	42.2315   	2.500000	37.5752   	2.500000	39.5808   	2.500000	39.5808   	2.500000	0.219062  	2.500000	0.155534  	2.500000	0.437779  	2.500000	0.458187  	2.500000	0.438007
3.000000	52.6782   	3.000000	47.8846   	3.000000	49.9604   	3.000000	49.9604   	3.000000	0.27583   	3.000000	0.192351  	3.000000	0.497773  	3.000000	0.520824  	3.000000	0.498583
3.500000	64.0384   	3.500000	59.2264   	3.500000	61.3004   	3.500000	61.3004   	3.500000	0.338682  	3.500000	0.232379  	3.500000	0.559789  	3.500000	0.585211  	3.500000	0.561353
4.000000	76.3068   	4.000000	71.5384   	4.000000	73.5895   	4.000000	73.5895   	4.000000	0.407528  	4.000000	0.275527  	4.000000	0.624646  	4.000000	0.652059  	4.000000	0.627102
4.500000	89.4746   	4.500000	84.7828   	4.500000	86.8138   	4.500000	86.8138   	4.500000	0.482255  	4.500000	0.321668  	4.500000	0.692874  	4.500000	0.721849  	4.500000	0.696366
5.000000	103.531   	5.000000	98.9328   	5.000000	100.958   	5.000000	100.958   	5.000000	0.562735  	5.000000	0.370687  	5.000000	0.764783  	5.000000	0.794861  	5.000000	0.769453
5.500000	118.467   	5.500000	113.967   	5.500000	116.009   	5.500000	116.009   	5.500000	0.648843  	5.500000	0.422491  	5.500000	0.840608  	5.500000	0.871315  	5.500000	0.846597
6.000000	134.269   	6.000000	129.868   	6.000000	131.95    	6.000000	131.95    	6.000000	0.740457  	6.000000	0.476996  	6.000000	0.920429  	6.000000	0.951264  	6.000000	0.927871
6.500000	150.928   	6.500000	146.62    	6.500000	148.768   	6.500000	148.768   	6.500000	0.837464  	6.500000	0.534119  	6.500000	1.00441   	6.500000	1.03484   	6.500000	1.01344
7.000000	168.434   	7.000000	164.208   	7.000000	166.449   	7.000000	166.449   	7.000000	0.939757  	7.000000	0.593788  	7.000000	1.09249   	7.000000	1.12195   	7.000000	1.10323
7.500000	186.777   	7.500000	182.619   	7.500000	184.982   	7.500000	184.982   	7.500000	1.04724   	7.500000	0.655939  	7.500000	1.18471   	7.500000	1.21263   	7.500000	1.19729
8.000000	205.947   	8.000000	201.84    	8.000000	204.354   	8.000000	204.354   	8.000000	1.15981   	8.000000	0.72051   	8.000000	1.28104   	8.000000	1.30683   	8.000000	1.29557
8.500000	225.935   	8.500000	221.861   	8.500000	224.554   	8.500000	224.554   	8.500000	1.2774    	8.500000	0.787448  	8.500000	1.38143   	8.500000	1.40451   	8.500000	1.39804
9.000000	246.733   	9.000000	242.67    	9.000000	245.571   	9.000000	245.571   	9.000000	1.39992   	9.000000	0.856704  	9.000000	1.48587   	9.000000	1.50563   	9.000000	1.50467
9.500000	268.332   	9.500000	264.257   	9.500000	267.395   	9.500000	267.395   	9.500000	1.52731   	9.500000	0.928236  	9.500000	1.5943    	9.500000	1.61014   	9.500000	1.6154
10.000000	290.724   	10.000000	286.608   	10.000000	290.018   	10.000000	290.018   	10.000000	1.65948   	10.000000	1.00201   	10.000000	1.70456   	10.000000	1.71795   	10.000000	1.72924
11.000000	337.858   	11.000000	333.119   	11.000000	337.541   	11.000000	337.522   	11.000000	1.93663   	11.000000	1.15608   	11.000000	1.92345   	11.000000	1.94283   	11.000000	1.9536
12.000000	388.078   	12.000000	382.316   	12.000000	387.997   	12.000000	387.926   	12.000000	2.22983   	12.000000	1.32009   	12.000000	2.15963   	12.000000	2.1794    	12.000000	2.19562
13.000000	441.329   	13.000000	434.21    	13.000000	441.329   	13.000000	441.175   	13.000000	2.53895   	13.000000	1.49383   	13.000000	2.41169   	13.000000	2.41347   	13.000000	2.45387
14.000000	497.564   	14.000000	488.799   	14.000000	497.483   	14.000000	497.223   	14.000000	2.86383   	14.000000	1.6766    	14.000000	2.6787    	14.000000	2.65939   	14.000000	2.72742
15.000000	556.734   	15.000000	546.078   	15.000000	556.412   	15.000000	556.025   	15.000000	3.20428   	15.000000	1.86778   	15.000000	2.95984   	15.000000	2.91756   	15.000000	3.01546
16.000000	618.797   	16.000000	606.035   	16.000000	618.072   	16.000000	617.538   	16.000000	3.56008   	16.000000	2.06686   	16.000000	3.25452   	16.000000	3.18731   	16.000000	3.3174
17.000000	683.713   	17.000000	668.659   	17.000000	682.42    	17.000000	681.723   	17.000000	3.93103   	17.000000	2.2735    	17.000000	3.56225   	17.000000	3.46814   	17.000000	3.63277
18.000000	751.442   	18.000000	733.934   	18.000000	749.418   	18.000000	748.544   	18.000000	4.31691   	18.000000	2.48746   	18.000000	3.88262   	18.000000	3.75958   	18.000000	3.96115
19.000000	821.949   	19.000000	801.845   	19.000000	819.025   	19.000000	817.965   	19.000000	4.71746   	19.000000	2.70855   	19.000000	4.21529   	19.000000	4.06128   	19.000000	4.30221
20.000000	895.198   	20.000000	872.373   	20.000000	891.207   	20.000000	889.954   	20.000000	5.13248   	20.000000	2.93652   	20.000000	4.55997   	20.000000	4.37295   	20.000000	4.65566
21.000000	971.157   	21.000000	945.503   	21.000000	965.935   	21.000000	964.481   	21.000000	5.56184   	21.000000	3.17115   	21.000000	4.91642   	21.000000	4.69432   	21.000000	5.02127
22.000000	1049.8    	22.000000	1021.22   	22.000000	1043.18   	22.000000	1041.53   	22.000000	6.00545   	22.000000	3.41233   	22.000000	5.28447   	22.000000	5.02521   	22.000000	5.39888
23.000000	1131.08   	23.000000	1099.5    	23.000000	1122.92   	23.000000	1121.05   	23.000000	6.463     	23.000000	3.65985   	23.000000	5.66387   	23.000000	5.36538   	23.000000	5.78823
24.000000	1214.99   	24.000000	1180.32   	24.000000	1205.1    	24.000000	1203.03   	24.000000	6.93421   	24.000000	3.91354   	24.000000	6.05438   	24.000000	5.7146    	24.000000	6.18909
25.000000	1301.49   	25.000000	1263.68   	25.000000	1289.71   	25.000000	1287.43   	25.000000	7.41891   	25.000000	4.17327   	25.000000	6.45583   	25.000000	6.07269   	25.000000	6.6013
27.000000	1482.15   	27.000000	1437.92   	27.000000	1466.09   	27.000000	1463.4    	27.000000	8.42814   	27.000000	4.71051   	27.000000	7.29087   	27.000000	6.81486   	27.000000	7.45911
29.000000	1672.89   	29.000000	1622.07   	29.000000	1651.85   	29.000000	1648.77   	29.000000	9.48907   	29.000000	5.27055   	29.000000	8.16762   	29.000000	7.5906    	29.000000	8.36032
31.000000	1873.5    	31.000000	1816      	31.000000	1846.85   	31.000000	1843.43   	31.000000	10.6015   	31.000000	5.85287   	31.000000	9.08534   	31.000000	8.39917   	31.000000	9.30424
33.000000	2083.81   	33.000000	2019.59   	33.000000	2051.42   	33.000000	2047.71   	33.000000	11.7721   	33.000000	6.46118   	33.000000	10.0464   	33.000000	9.24246   	33.000000	10.2934
35.000000	2303.66   	35.000000	2232.69   	35.000000	2265.46   	35.000000	2261.53   	35.000000	13        	35.000000	7.09532   	35.000000	11.0507   	35.000000	10.1203   	35.000000	11.3276
38.000000	2651      	38.000000	2569.93   	38.000000	2603.93   	38.000000	2599.82   	38.000000	14.9456   	38.000000	8.09245   	38.000000	12.6366   	38.000000	11.5004   	38.000000	12.9623
41.000000	3018.96   	41.000000	2927.92   	41.000000	2962.93   	41.000000	2958.79   	41.000000	17.0122   	41.000000	9.14221   	41.000000	14.3164   	41.000000	12.9553   	41.000000	14.6954
44.000000	3407.1    	44.000000	3306.27   	44.000000	3342.06   	44.000000	3338.01   	44.000000	19.196    	44.000000	10.2431   	44.000000	16.088    	44.000000	14.4831   	44.000000	16.5252
47.000000	3815      	47.000000	3704.61   	47.000000	3740.96   	47.000000	3737.09   	47.000000	21.4938   	47.000000	11.3941   	47.000000	17.9493   	47.000000	16.0822   	47.000000	18.4497
50.000000	4242.27   	50.000000	4122.6    	50.000000	4159.19   	50.000000	4155.64   	50.000000	23.9012   	50.000000	12.5924   	50.000000	19.898    	50.000000	17.7503   	50.000000	20.4667
55.000000	4996.42   	55.000000	4861.99   	55.000000	4898.28   	55.000000	4895.59   	55.000000	28.1499   	55.000000	14.6911   	55.000000	23.3342   	55.000000	20.6795   	55.000000	24.0288
60.000000	5801.77   	60.000000	5653.51   	60.000000	5688.77   	60.000000	5687.17   	60.000000	32.6854   	60.000000	16.9136   	60.000000	26.9994   	60.000000	23.7894   	60.000000	27.8354
65.000000	6656.85   	65.000000	6495.77   	65.000000	6529.12   	65.000000	6529      	65.000000	37.4938   	65.000000	19.2517   	65.000000	30.8841   	65.000000	27.0726   	65.000000	31.8779
70.000000	7560.33   	70.000000	7387.43   	70.000000	7418.13   	70.000000	7419.78   	70.000000	42.5664   	70.000000	21.7033   	70.000000	34.9813   	70.000000	30.5231   	70.000000	36.1497
75.000000	8510.98   	75.000000	8327.24   	75.000000	8354.55   	75.000000	8358.29   	75.000000	47.8926   	75.000000	24.2628   	75.000000	39.2831   	75.000000	34.1351   	75.000000	40.644
80.000000	9507.64   	80.000000	9314.01   	80.000000	9337.15   	80.000000	9343.37   	80.000000	53.4622   	80.000000	26.9274   	80.000000	43.7824   	80.000000	37.9028   	80.000000	45.354
85.000000	10549.2   	85.000000	10346.6   	85.000000	10365     	85.000000	10374     	85.000000	59.2686   	85.000000	29.6923   	85.000000	48.4735   	85.000000	41.822    	85.000000	50.2748
90.000000	11634.7   	90.000000	11423.9   	90.000000	11437     	90.000000	11449     	90.000000	65.3032   	90.000000	32.5566   	90.000000	53.3499   	90.000000	45.8879   	90.000000	55.4005
95.000000	12763.2   	95.000000	12544.9   	95.000000	12552.2   	95.000000	12567.5   	95.000000	71.5583   	95.000000	35.5169   	95.000000	58.406    	95.000000	50.096    	95.000000	60.726
100.000000	13933.7   	100.000000	13708.6   	100.000000	13709.7   	100.000000	13728.6   	100.000000	78.0261   	100.000000	38.5692   	100.000000	63.636    	100.000000	54.4422   	100.000000	66.2462
105.000000	15145.4   	105.000000	14914     	105.000000	14908.5   	105.000000	14931.3   	105.000000	84.6996   	105.000000	41.7095   	105.000000	69.0345   	105.000000	58.9225   	105.000000	71.956
110.000000	16397.5   	110.000000	16160.3   	110.000000	16147.8   	110.000000	16174.7   	110.000000	91.5718   	110.000000	44.9346   	110.000000	74.5965   	110.000000	63.5332   	110.000000	77.8511
115.000000	17689.3   	115.000000	17446.5   	115.000000	17426.7   	115.000000	17458.1   	115.000000	98.636    	115.000000	48.2448   	115.000000	80.3169   	115.000000	68.2706   	115.000000	83.9268
120.000000	19019.8   	120.000000	18771.7   	120.000000	18744.5   	120.000000	18780.7   	120.000000	105.886   	120.000000	51.6373   	120.000000	86.191    	120.000000	73.1313   	120.000000	90.1788
125.000000	20388.6   	125.000000	20135.3   	125.000000	20100.5   	125.000000	20141.5   	125.000000	113.319   	125.000000	55.1088   	125.000000	92.2155   	125.000000	78.1129   	125.000000	96.6043
130.000000	21794.8   	130.000000	21536.3   	130.000000	21493.9   	130.000000	21540     	130.000000	120.925   	130.000000	58.6584   	130.000000	98.3848   	130.000000	83.2114   	130.000000	103.198
135.000000	23237.9   	135.000000	22974     	135.000000	22923.9   	135.000000	22975.3   	135.000000	128.7     	135.000000	62.2835   	135.000000	104.695   	135.000000	88.4239   	135.000000	109.956
140.000000	24717.2   	140.000000	24447.6   	140.000000	24389.8   	140.000000	24446.9   	140.000000	136.637   	140.000000	65.98     	140.000000	111.141   	140.000000	93.747    	140.000000	116.875
145.000000	26232.2   	145.000000	25956.5   	145.000000	25890.9   	145.000000	25953.9   	145.000000	144.731   	145.000000	69.7467   	145.000000	117.72    	145.000000	99.1783   	145.000000	123.951
150.000000	27782.1   	150.000000	27499.9   	150.000000	27426.5   	150.000000	27495.7   	150.000000	152.977   	150.000000	73.5819   	150.000000	124.427   	150.000000	104.715   	150.000000	131.18
155.000000	29389     	155.000000	29077.3   	155.000000	28996.1   	155.000000	29071.7   	155.000000	161.37    	155.000000	77.4839   	155.000000	131.259   	155.000000	110.354   	155.000000	138.558
160.000000	31029.2   	160.000000	30687.8   	160.000000	30598.9   	160.000000	30681.3   	160.000000	169.906   	160.000000	81.4512   	160.000000	138.212   	160.000000	116.093   	160.000000	146.084
165.000000	32701.5   	165.000000	32330.9   	165.000000	32234.5   	165.000000	32323.8   	165.000000	178.581   	165.000000	85.4832   	165.000000	145.283   	165.000000	121.93    	165.000000	153.753
170.000000	34405.1   	170.000000	34006     	170.000000	33902.4   	170.000000	33998.7   	170.000000	187.391   	170.000000	89.5787   	170.000000	152.47    	170.000000	127.863   	170.000000	161.563
