*Energy (MeV/u)1	0 - [He-base] F.Hubert et al, AD&ND Tables 46(1990)1	Energy (MeV/u)2	1 - [H -base] J.F.Ziegler et al, Pergamon Press, NY (low energy)	Energy (MeV/u)3	2 - ATIMA 1.2  LS-theory (recommended for high energy)	Energy (MeV/u)4	3 - ATIMA 1.2  without LS-correction	Energy (MeV/u)5	4 - Range straggling - method [0] - LISE	Energy (MeV/u)6	5 - Range straggling - method [1] - Atima	Energy (MeV/u)7	6 - Lateral range - method [0] - LISE	Energy (MeV/u)8	7 - Lateral range - method [1] - Atima	Energy (MeV/u)9	8 - Lateral range - method [2] - PDG	
0.001000	0.0706278 	0.001000	0.0706278 	0.001000	0.0810418 	0.001000	0.0810418 	0.001000	0         	0.001000	0         	0.001000	0.000359406	0.001000	0.000548691	0.001000	0.00031497
0.002000	0.149942  	0.002000	0.141256  	0.002000	0.162084  	0.002000	0.162084  	0.002000	0.0161747 	0.002000	0.0161747 	0.002000	0.00105268	0.002000	0.00155278	0.002000	0.000946803
0.005000	0.322684  	0.005000	0.29508   	0.005000	0.336701  	0.005000	0.336701  	0.005000	0.0182147 	0.005000	0.0182147 	0.005000	0.00307593	0.005000	0.0044373 	0.005000	0.002809
0.008000	0.455817  	0.008000	0.413632  	0.008000	0.469743  	0.008000	0.469743  	0.008000	0.0182653 	0.008000	0.0182653 	0.008000	0.00497959	0.008000	0.00709656	0.008000	0.00458291
0.010000	0.533096  	0.010000	0.482448  	0.010000	0.546427  	0.010000	0.546427  	0.010000	0.0184253 	0.010000	0.0184253 	0.010000	0.00621771	0.010000	0.00881126	0.010000	0.00574232
0.015000	0.701673  	0.015000	0.632563  	0.015000	0.712474  	0.015000	0.712474  	0.015000	0.0191658 	0.015000	0.0191658 	0.015000	0.00925644	0.015000	0.0129895 	0.015000	0.00859933
0.020000	0.847136  	0.020000	0.762095  	0.020000	0.854542  	0.020000	0.854542  	0.020000	0.0200948 	0.020000	0.0200948 	0.020000	0.0122369 	0.020000	0.0169317 	0.020000	0.0114125
0.025000	0.977125  	0.025000	0.877848  	0.025000	0.980692  	0.025000	0.980692  	0.025000	0.0210332 	0.025000	0.0210332 	0.025000	0.0151865 	0.025000	0.0205401 	0.025000	0.0142038
0.030000	1.09539   	0.030000	0.983159  	0.030000	1.08953   	0.030000	1.08953   	0.030000	0.0217969 	0.030000	0.0217969 	0.030000	0.0179772 	0.030000	0.023747  	0.030000	0.0168444
0.035000	1.20393   	0.035000	1.07982   	0.035000	1.18448   	0.035000	1.18448   	0.035000	0.0223992 	0.035000	0.0223992 	0.035000	0.0206162 	0.035000	0.0266157 	0.035000	0.0193406
0.040000	1.30435   	0.040000	1.16924   	0.040000	1.27184   	0.040000	1.27184   	0.040000	0.0229353 	0.040000	0.0229353 	0.040000	0.0232187 	0.040000	0.029296  	0.040000	0.0218053
0.045000	1.39821   	0.045000	1.25282   	0.045000	1.3541    	0.045000	1.3541    	0.045000	0.0234336 	0.045000	0.0234336 	0.045000	0.0258326 	0.045000	0.0318581 	0.045000	0.0242847
0.050000	1.48674   	0.050000	1.33165   	0.050000	1.43241   	0.050000	1.43241   	0.050000	0.0239029 	0.050000	0.0238091 	0.050000	0.0284674 	0.050000	0.0343262 	0.050000	0.0267876
0.055000	1.57087   	0.055000	1.40657   	0.055000	1.50742   	0.055000	1.50742   	0.055000	0.0243467 	0.055000	0.0241088 	0.055000	0.0310121 	0.055000	0.036725  	0.055000	0.0293246
0.060000	1.65145   	0.060000	1.47832   	0.060000	1.57958   	0.060000	1.57958   	0.060000	0.0247676 	0.060000	0.024391  	0.060000	0.0333724 	0.060000	0.0390642 	0.060000	0.0318973
0.070000	1.80433   	0.070000	1.61446   	0.070000	1.71681   	0.070000	1.71681   	0.070000	0.0255503 	0.070000	0.024913  	0.070000	0.0380224 	0.070000	0.0436096 	0.070000	0.0368009
0.080000	1.94861   	0.080000	1.74294   	0.080000	1.84643   	0.080000	1.84643   	0.080000	0.0262688 	0.080000	0.0253909 	0.080000	0.0425704 	0.080000	0.0480264 	0.080000	0.0413582
0.090000	2.08644   	0.090000	1.86568   	0.090000	1.97019   	0.090000	1.97019   	0.090000	0.0269388 	0.090000	0.0258368 	0.090000	0.0469707 	0.090000	0.0523167 	0.090000	0.0457895
0.100000	2.21933   	0.100000	1.98402   	0.100000	2.08939   	0.100000	2.08939   	0.100000	0.0275724 	0.100000	0.0262597 	0.100000	0.0511695 	0.100000	0.0564423 	0.100000	0.0500255
0.120000	2.47455   	0.120000	2.21128   	0.120000	2.31786   	0.120000	2.31786   	0.120000	0.0287662 	0.120000	0.0270612 	0.120000	0.0586638 	0.120000	0.063857  	0.120000	0.0575915
0.140000	2.72043   	0.140000	2.43024   	0.140000	2.53745   	0.140000	2.53745   	0.140000	0.029903  	0.140000	0.0278312 	0.140000	0.0648959 	0.140000	0.0700899 	0.140000	0.0638791
0.160000	2.96075   	0.160000	2.64424   	0.160000	2.7516    	0.160000	2.7516    	0.160000	0.0310141 	0.160000	0.0285906 	0.160000	0.0703704 	0.160000	0.0756327 	0.160000	0.0693838
0.180000	3.19649   	0.180000	2.85416   	0.180000	2.96254   	0.180000	2.96254   	0.180000	0.0321191 	0.180000	0.0293525 	0.180000	0.0752787 	0.180000	0.0806771 	0.180000	0.0743085
0.200000	3.42821   	0.200000	3.0605    	0.200000	3.17173   	0.200000	3.17173   	0.200000	0.0332299 	0.200000	0.0301246 	0.200000	0.0797278 	0.200000	0.085307  	0.200000	0.0787658
0.250000	3.99824   	0.250000	3.5681    	0.250000	3.69277   	0.250000	3.69277   	0.250000	0.0360739 	0.250000	0.032126  	0.250000	0.0904377 	0.250000	0.0965525 	0.250000	0.0894939
0.300000	4.56259   	0.300000	4.07065   	0.300000	4.21677   	0.300000	4.21677   	0.300000	0.0390443 	0.300000	0.0342465 	0.300000	0.100444  	0.300000	0.107139  	0.300000	0.0994982
0.350000	5.12212   	0.350000	4.5689    	0.350000	4.74625   	0.350000	4.74625   	0.350000	0.0421306 	0.350000	0.0364732 	0.350000	0.109603  	0.350000	0.11692   	0.350000	0.108652
0.400000	5.67967   	0.400000	5.06539   	0.400000	5.27899   	0.400000	5.27899   	0.400000	0.0452614 	0.400000	0.0387493 	0.400000	0.118515  	0.400000	0.126427  	0.400000	0.11756
0.450000	6.23318   	0.450000	5.55828   	0.450000	5.81659   	0.450000	5.81659   	0.450000	0.0484446 	0.450000	0.0410751 	0.450000	0.126999  	0.450000	0.135482  	0.450000	0.126036
0.500000	6.78624   	0.500000	6.05077   	0.500000	6.36041   	0.500000	6.36041   	0.500000	0.0516897 	0.500000	0.0434535 	0.500000	0.135233  	0.500000	0.144261  	0.500000	0.134267
0.600000	7.90347   	0.600000	7.04564   	0.600000	7.47197   	0.600000	7.47197   	0.600000	0.0584175 	0.600000	0.0483939 	0.600000	0.150831  	0.600000	0.160915  	0.600000	0.149856
0.700000	9.04757   	0.700000	8.06445   	0.700000	8.61855   	0.700000	8.61855   	0.700000	0.0654696 	0.700000	0.0535698 	0.700000	0.165624  	0.700000	0.176703  	0.700000	0.16465
0.800000	10.2311   	0.800000	9.1184    	0.800000	9.80122   	0.800000	9.80122   	0.800000	0.072828  	0.800000	0.0589544 	0.800000	0.17986   	0.800000	0.191899  	0.800000	0.17889
0.900000	11.4621   	0.900000	10.2145   	0.900000	11.0206   	0.900000	11.0206   	0.900000	0.0804829 	0.900000	0.0645306 	0.900000	0.19357   	0.900000	0.206535  	0.900000	0.192612
1.000000	12.7416   	1.000000	11.3539   	1.000000	12.2774   	1.000000	12.2774   	1.000000	0.0884298 	1.000000	0.0702881 	1.000000	0.206983  	1.000000	0.22085   	1.000000	0.206044
1.250000	16.1706   	1.250000	14.4074   	1.250000	15.5926   	1.250000	15.5926   	1.250000	0.109712  	1.250000	0.0855378 	1.250000	0.238784  	1.250000	0.254884  	1.250000	0.237917
1.500000	19.9421   	1.500000	17.7659   	1.500000	19.1636   	1.500000	19.1636   	1.500000	0.133089  	1.500000	0.102015  	1.500000	0.268775  	1.500000	0.287102  	1.500000	0.268018
1.750000	24.0419   	1.750000	21.4167   	1.750000	22.9854   	1.750000	22.9854   	1.750000	0.158425  	1.750000	0.119588  	1.750000	0.298436  	1.750000	0.318943  	1.750000	0.297834
2.000000	28.4734   	2.000000	25.3628   	2.000000	27.0571   	2.000000	27.0571   	2.000000	0.185702  	2.000000	0.138227  	2.000000	0.328401  	2.000000	0.351019  	2.000000	0.327999
2.250000	33.2662   	2.250000	29.6307   	2.250000	31.3788   	2.250000	31.3788   	2.250000	0.21494   	2.250000	0.157934  	2.250000	0.35898   	2.250000	0.383634  	2.250000	0.358826
2.500000	38.388    	2.500000	34.1957   	2.500000	35.951    	2.500000	35.951    	2.500000	0.246158  	2.500000	0.178704  	2.500000	0.390377  	2.500000	0.416984  	2.500000	0.390518
3.000000	48.4989   	3.000000	44.1455   	3.000000	45.8452   	3.000000	45.8452   	3.000000	0.314573  	3.000000	0.223408  	3.000000	0.456209  	3.000000	0.486415  	3.000000	0.457082
3.500000	59.5607   	3.500000	55.1224   	3.500000	56.733    	3.500000	56.733    	3.500000	0.390944  	3.500000	0.272288  	3.500000	0.526787  	3.500000	0.560116  	3.500000	0.528581
4.000000	71.5595   	4.000000	67.0794   	4.000000	68.6025   	4.000000	68.6025   	4.000000	0.475179  	4.000000	0.325257  	4.000000	0.60265   	4.000000	0.638553  	4.000000	0.605549
4.500000	84.4803   	4.500000	79.9854   	4.500000	81.4384   	4.500000	81.4384   	4.500000	0.567113  	4.500000	0.38215   	4.500000	0.684114  	4.500000	0.721983  	4.500000	0.68831
5.000000	98.3083   	5.000000	93.816    	5.000000	95.2233   	5.000000	95.2233   	5.000000	0.666554  	5.000000	0.442808  	5.000000	0.771323  	5.000000	0.810482  	5.000000	0.776984
5.500000	113.029   	5.500000	108.55    	5.500000	109.94    	5.500000	109.94    	5.500000	0.773302  	5.500000	0.507093  	5.500000	0.864315  	5.500000	0.90406   	5.500000	0.871603
6.000000	128.63    	6.000000	124.169   	6.000000	125.57    	6.000000	125.57    	6.000000	0.887164  	6.000000	0.574874  	6.000000	0.963024  	6.000000	1.00264   	6.000000	0.972095
6.500000	145.097   	6.500000	140.654   	6.500000	142.098   	6.500000	142.098   	6.500000	1.00796   	6.500000	0.646029  	6.500000	1.06743   	6.500000	1.10618   	6.500000	1.07844
7.000000	162.419   	7.000000	157.991   	7.000000	159.507   	7.000000	159.507   	7.000000	1.13552   	7.000000	0.720448  	7.000000	1.1774    	7.000000	1.21454   	7.000000	1.19048
7.500000	180.585   	7.500000	176.164   	7.500000	177.783   	7.500000	177.783   	7.500000	1.2697    	7.500000	0.798031  	7.500000	1.29284   	7.500000	1.32764   	7.500000	1.30815
8.000000	199.583   	8.000000	195.159   	8.000000	196.912   	8.000000	196.912   	8.000000	1.41036   	8.000000	0.878694  	8.000000	1.41365   	8.000000	1.44537   	8.000000	1.43131
8.500000	219.405   	8.500000	214.963   	8.500000	216.881   	8.500000	216.881   	8.500000	1.55736   	8.500000	0.962363  	8.500000	1.53972   	8.500000	1.5676    	8.500000	1.55988
9.000000	240.039   	9.000000	235.565   	9.000000	237.678   	9.000000	237.678   	9.000000	1.7106    	9.000000	1.04897   	9.000000	1.67096   	9.000000	1.69425   	9.000000	1.69375
9.500000	261.478   	9.500000	256.952   	9.500000	259.29    	9.500000	259.29    	9.500000	1.86996   	9.500000	1.13842   	9.500000	1.80727   	9.500000	1.82522   	9.500000	1.83282
10.000000	283.712   	10.000000	279.11    	10.000000	281.709   	10.000000	281.709   	10.000000	2.03536   	10.000000	1.23066   	10.000000	1.94854   	10.000000	1.96039   	10.000000	1.97698
11.000000	330.535   	11.000000	325.254   	11.000000	328.851   	11.000000	328.839   	11.000000	2.38236   	11.000000	1.42332   	11.000000	2.24502   	11.000000	2.24245   	11.000000	2.27961
12.000000	380.448   	12.000000	374.104   	12.000000	378.959   	12.000000	378.914   	12.000000	2.74971   	12.000000	1.62868   	12.000000	2.55906   	12.000000	2.5392    	12.000000	2.60027
13.000000	433.393   	13.000000	425.661   	13.000000	431.966   	13.000000	431.871   	13.000000	3.13713   	13.000000	1.84631   	13.000000	2.88997   	13.000000	2.84993   	13.000000	2.93826
14.000000	489.319   	14.000000	479.922   	14.000000	487.815   	14.000000	487.655   	14.000000	3.54435   	14.000000	2.07514   	14.000000	3.23112   	14.000000	3.17416   	14.000000	3.28763
15.000000	548.18    	15.000000	536.877   	15.000000	546.452   	15.000000	546.215   	15.000000	3.97108   	15.000000	2.31454   	15.000000	3.58897   	15.000000	3.51144   	15.000000	3.65365
16.000000	609.929   	16.000000	596.513   	16.000000	607.83    	16.000000	607.506   	16.000000	4.41701   	16.000000	2.56396   	16.000000	3.96305   	16.000000	3.86139   	16.000000	4.03635
17.000000	674.525   	17.000000	658.815   	17.000000	671.902   	17.000000	671.483   	17.000000	4.88183   	17.000000	2.82284   	17.000000	4.35289   	17.000000	4.21974   	17.000000	4.43525
18.000000	741.928   	18.000000	723.765   	18.000000	738.626   	18.000000	738.107   	18.000000	5.36525   	18.000000	3.09075   	18.000000	4.75808   	18.000000	4.58914   	18.000000	4.84997
19.000000	812.103   	19.000000	791.347   	19.000000	807.963   	19.000000	807.341   	19.000000	5.867     	19.000000	3.36741   	19.000000	5.17829   	19.000000	4.97088   	19.000000	5.28015
20.000000	885.013   	20.000000	861.543   	20.000000	879.88    	20.000000	879.15    	20.000000	6.38688   	20.000000	3.65261   	20.000000	5.61321   	20.000000	5.3647    	20.000000	5.72553
21.000000	960.625   	21.000000	934.335   	21.000000	954.346   	21.000000	953.501   	21.000000	6.92469   	21.000000	3.94614   	21.000000	6.06261   	21.000000	5.77032   	21.000000	6.18584
22.000000	1038.91   	22.000000	1009.7    	22.000000	1031.33   	22.000000	1030.37   	22.000000	7.48027   	22.000000	4.24784   	22.000000	6.52628   	22.000000	6.18754   	22.000000	6.66091
23.000000	1119.83   	23.000000	1087.63   	23.000000	1110.8    	23.000000	1109.73   	23.000000	8.05321   	23.000000	4.55743   	23.000000	7.00393   	23.000000	6.61608   	23.000000	7.15043
24.000000	1203.36   	24.000000	1168.1    	24.000000	1192.72   	24.000000	1191.53   	24.000000	8.64315   	24.000000	4.8747    	24.000000	7.49526   	24.000000	7.05569   	24.000000	7.65414
25.000000	1289.48   	25.000000	1251.09   	25.000000	1277.06   	25.000000	1275.77   	25.000000	9.24993   	25.000000	5.19951   	25.000000	8.00013   	25.000000	7.50618   	25.000000	8.17187
27.000000	1469.36   	27.000000	1424.57   	27.000000	1452.89   	27.000000	1451.4    	27.000000	10.5132   	27.000000	5.87126   	27.000000	9.04963   	27.000000	8.4391    	27.000000	9.24862
29.000000	1659.27   	29.000000	1607.93   	29.000000	1638.09   	29.000000	1636.42   	29.000000	11.8411   	29.000000	6.57156   	29.000000	10.1509   	29.000000	9.41342   	29.000000	10.3792
31.000000	1859.02   	31.000000	1801.03   	31.000000	1832.54   	31.000000	1830.73   	31.000000	13.2335   	31.000000	7.30024   	31.000000	11.3031   	31.000000	10.4284   	31.000000	11.5628
33.000000	2068.44   	33.000000	2003.75   	33.000000	2036.49   	33.000000	2034.61   	33.000000	14.6976   	33.000000	8.06065   	33.000000	12.5089   	33.000000	11.486    	33.000000	12.8023
35.000000	2287.36   	35.000000	2215.95   	35.000000	2249.88   	35.000000	2247.97   	35.000000	16.2332   	35.000000	8.85277   	35.000000	13.7683   	35.000000	12.5864   	35.000000	14.0978
38.000000	2633.22   	38.000000	2551.77   	38.000000	2587.37   	38.000000	2585.49   	38.000000	18.6667   	38.000000	10.0986   	38.000000	15.7568   	38.000000	14.3159   	38.000000	16.1448
41.000000	2999.63   	41.000000	2908.25   	41.000000	2945.29   	41.000000	2943.57   	41.000000	21.2501   	41.000000	11.4099   	41.000000	17.8617   	41.000000	16.1379   	41.000000	18.314
44.000000	3386.13   	44.000000	3285.01   	44.000000	3323.28   	44.000000	3321.79   	44.000000	23.9798   	44.000000	12.7856   	44.000000	20.081    	44.000000	18.0505   	44.000000	20.6034
47.000000	3792.32   	47.000000	3681.69   	47.000000	3720.94   	47.000000	3719.77   	47.000000	26.851    	47.000000	14.2223   	47.000000	22.4119   	47.000000	20.0513   	47.000000	23.0106
50.000000	4217.79   	50.000000	4097.92   	50.000000	4137.89   	50.000000	4137.12   	50.000000	29.8599   	50.000000	15.7183   	50.000000	24.8518   	50.000000	22.1384   	50.000000	25.5332
55.000000	4968.78   	55.000000	4834.21   	55.000000	4874.73   	55.000000	4874.85   	55.000000	35.1693   	55.000000	18.3383   	55.000000	29.1536   	55.000000	25.8023   	55.000000	29.9872
60.000000	5770.75   	60.000000	5622.41   	60.000000	5662.59   	60.000000	5663.97   	60.000000	40.8327   	60.000000	21.1105   	60.000000	33.7391   	60.000000	29.6897   	60.000000	34.7442
65.000000	6622.25   	65.000000	6461.14   	65.000000	6500.32   	65.000000	6503.08   	65.000000	46.8409   	65.000000	24.0291   	65.000000	38.6001   	65.000000	33.7941   	65.000000	39.7966
70.000000	7521.96   	70.000000	7349.07   	70.000000	7386.54   	70.000000	7390.89   	70.000000	53.1783   	70.000000	27.0887   	70.000000	43.7261   	70.000000	38.107    	70.000000	45.135
75.000000	8468.62   	75.000000	8284.95   	75.000000	8319.99   	75.000000	8326.21   	75.000000	59.8323   	75.000000	30.283    	75.000000	49.1078   	75.000000	42.6213   	75.000000	50.7509
80.000000	9461.11   	80.000000	9267.58   	80.000000	9299.55   	80.000000	9307.89   	80.000000	66.7915   	80.000000	33.6089   	80.000000	54.7367   	80.000000	47.3302   	80.000000	56.6366
85.000000	10498.3   	85.000000	10295.8   	85.000000	10324.1   	85.000000	10334.8   	85.000000	74.0447   	85.000000	37.0594   	85.000000	60.6045   	85.000000	52.2277   	85.000000	62.7846
90.000000	11579.3   	90.000000	11368.6   	90.000000	11392.7   	90.000000	11406.1   	90.000000	81.5843   	90.000000	40.6323   	90.000000	66.7045   	90.000000	57.3086   	90.000000	69.1891
95.000000	12703     	95.000000	12485     	95.000000	12504.5   	95.000000	12520.5   	95.000000	89.4002   	95.000000	44.3239   	95.000000	73.0295   	95.000000	62.5674   	95.000000	75.8434
100.000000	13868.7   	100.000000	13643.8   	100.000000	13658.3   	100.000000	13677.4   	100.000000	97.4806   	100.000000	48.1297   	100.000000	79.5714   	100.000000	67.9984   	100.000000	82.7403
105.000000	15075.3   	105.000000	14844.2   	105.000000	14853.3   	105.000000	14875.6   	105.000000	105.817   	105.000000	52.0464   	105.000000	86.3236   	105.000000	73.5963   	105.000000	89.8737
110.000000	16322.2   	110.000000	16085.2   	110.000000	16088.7   	110.000000	16114.5   	110.000000	114.402   	110.000000	56.0723   	110.000000	93.2804   	110.000000	79.3573   	110.000000	97.2386
115.000000	17608.5   	115.000000	17366     	115.000000	17363.6   	115.000000	17393.1   	115.000000	123.229   	115.000000	60.204    	115.000000	100.436   	115.000000	85.2772   	115.000000	104.83
120.000000	18933.5   	120.000000	18685.7   	120.000000	18677.3   	120.000000	18710.6   	120.000000	132.288   	120.000000	64.4349   	120.000000	107.784   	120.000000	91.3508   	120.000000	112.641
125.000000	20296.6   	125.000000	20043.5   	125.000000	20028.9   	125.000000	20066.3   	125.000000	141.569   	125.000000	68.7655   	125.000000	115.318   	125.000000	97.5741   	125.000000	120.668
130.000000	21696.9   	130.000000	21438.7   	130.000000	21417.8   	130.000000	21459.5   	130.000000	151.07    	130.000000	73.1922   	130.000000	123.033   	130.000000	103.944   	130.000000	128.904
135.000000	23134     	135.000000	22870.3   	135.000000	22843.2   	135.000000	22889.3   	135.000000	160.783   	135.000000	77.7131   	135.000000	130.925   	135.000000	110.456   	135.000000	137.347
140.000000	24607.1   	140.000000	24337.8   	140.000000	24304.4   	140.000000	24355.2   	140.000000	170.697   	140.000000	82.3265   	140.000000	138.987   	140.000000	117.106   	140.000000	145.99
145.000000	26115.7   	145.000000	25840.4   	145.000000	25800.6   	145.000000	25856.3   	145.000000	180.807   	145.000000	87.0271   	145.000000	147.214   	145.000000	123.891   	145.000000	154.829
150.000000	27659.2   	150.000000	27377.4   	150.000000	27331.4   	150.000000	27392.2   	150.000000	191.109   	150.000000	91.8137   	150.000000	155.602   	150.000000	130.809   	150.000000	163.859
155.000000	29259.3   	155.000000	28948.1   	155.000000	28896     	155.000000	28962.1   	155.000000	201.596   	155.000000	96.6848   	155.000000	164.147   	155.000000	137.854   	155.000000	173.078
160.000000	30892.7   	160.000000	30551.9   	160.000000	30493.9   	160.000000	30565.4   	160.000000	212.261   	160.000000	101.637   	160.000000	172.844   	160.000000	145.025   	160.000000	182.48
165.000000	32557.9   	165.000000	32188.2   	165.000000	32124.4   	165.000000	32201.5   	165.000000	223.1     	165.000000	106.669   	165.000000	181.688   	165.000000	152.318   	165.000000	192.061
170.000000	34254.4   	170.000000	33856.3   	170.000000	33787     	170.000000	33869.8   	170.000000	234.107   	170.000000	111.781   	170.000000	190.677   	170.000000	159.731   	170.000000	201.819
