Energy (MeV/u)1	0 - [He-base] F.Hubert et al, AD&ND Tables 46(1990)1	Energy (MeV/u)2	1 - [H -base] J.F.Ziegler et al, Pergamon Press, NY (low energy)	Energy (MeV/u)3	2 - ATIMA 1.2  LS-theory (recommended for high energy)	Energy (MeV/u)4	3 - ATIMA 1.2  without LS-correction	Energy (MeV/u)5	4 - electrical component of [1] - J.F.Ziegler et al	Energy (MeV/u)6	5 - nuclear component of [1] - J.F.Ziegler et al	
0.001000	0.135173  	0.001000	0.0748704 	0.001000	0.118062  	0.001000	0.118062  	0.001000	0.0371848 	0.001000	0.0376857 	
0.002000	0.155952  	0.002000	0.0833474 	0.002000	0.131349  	0.002000	0.131349  	0.002000	0.0544417 	0.002000	0.0289057 	
0.005000	0.217602  	0.005000	0.108091  	0.005000	0.159152  	0.005000	0.159152  	0.005000	0.0901153 	0.005000	0.0179757 	
0.008000	0.269868  	0.008000	0.130183  	0.008000	0.179904  	0.008000	0.179904  	0.008000	0.116698  	0.008000	0.0134845 	
0.010000	0.301026  	0.010000	0.143602  	0.010000	0.191603  	0.010000	0.191603  	0.010000	0.131937  	0.010000	0.0116655 	
0.015000	0.353321  	0.015000	0.176424  	0.015000	0.219427  	0.015000	0.219427  	0.015000	0.167565  	0.015000	0.0088589 	
0.020000	0.394356  	0.020000	0.216495  	0.020000	0.255521  	0.020000	0.255521  	0.020000	0.209333  	0.020000	0.00716167	
0.025000	0.43902   	0.025000	0.254911  	0.025000	0.29037   	0.025000	0.29037   	0.025000	0.248819  	0.025000	0.00609223	
0.030000	0.475237  	0.030000	0.290768  	0.030000	0.319619  	0.030000	0.319619  	0.030000	0.285444  	0.030000	0.00532394	
0.035000	0.504208  	0.035000	0.323287  	0.035000	0.346372  	0.035000	0.346372  	0.035000	0.318544  	0.035000	0.00474244	
0.040000	0.526434  	0.040000	0.352929  	0.040000	0.370729  	0.040000	0.370729  	0.040000	0.348644  	0.040000	0.00428536	
0.045000	0.542271  	0.045000	0.3796    	0.045000	0.392783  	0.045000	0.392783  	0.045000	0.375684  	0.045000	0.00391562	
0.050000	0.552169  	0.050000	0.403301  	0.050000	0.412633  	0.050000	0.412633  	0.050000	0.399691  	0.050000	0.00360973	
0.055000	0.574132  	0.055000	0.424118  	0.055000	0.430389  	0.055000	0.430389  	0.055000	0.420766  	0.055000	0.00335203	
0.060000	0.592395  	0.060000	0.442199  	0.060000	0.446171  	0.060000	0.446171  	0.060000	0.439067  	0.060000	0.00313165	
0.070000	0.618999  	0.070000	0.470945  	0.070000	0.472322  	0.070000	0.472322  	0.070000	0.468171  	0.070000	0.00277381	
0.080000	0.647521  	0.080000	0.491303  	0.080000	0.492135  	0.080000	0.492135  	0.080000	0.488808  	0.080000	0.00249494	
0.090000	0.668077  	0.090000	0.50507   	0.090000	0.506651  	0.090000	0.506651  	0.090000	0.502799  	0.090000	0.00227093	
0.100000	0.683252  	0.100000	0.513845  	0.100000	0.516838  	0.100000	0.516838  	0.100000	0.511758  	0.100000	0.00208668	
0.120000	0.692885  	0.120000	0.527779  	0.120000	0.527532  	0.120000	0.527532  	0.120000	0.525978  	0.120000	0.00180067	
0.140000	0.694558  	0.140000	0.532913  	0.140000	0.529608  	0.140000	0.529608  	0.140000	0.531324  	0.140000	0.0015882 	
0.160000	0.694614  	0.160000	0.534424  	0.160000	0.526684  	0.160000	0.526684  	0.160000	0.533     	0.160000	0.0014236 	
0.180000	0.693764  	0.180000	0.532404  	0.180000	0.521033  	0.180000	0.521033  	0.180000	0.531112  	0.180000	0.00129203	
0.200000	0.695598  	0.200000	0.531045  	0.200000	0.514025  	0.200000	0.514025  	0.200000	0.529861  	0.200000	0.00118424	
0.250000	0.681362  	0.250000	0.524389  	0.250000	0.49496   	0.250000	0.49496   	0.250000	0.523405  	0.250000	0.000983684	
0.300000	0.679135  	0.300000	0.52451   	0.300000	0.479969  	0.300000	0.479969  	0.300000	0.523665  	0.300000	0.000844445	
0.350000	0.671239  	0.350000	0.518353  	0.350000	0.466496  	0.350000	0.466496  	0.350000	0.517611  	0.350000	0.000741716	
0.400000	0.659907  	0.400000	0.509179  	0.400000	0.453176  	0.400000	0.453176  	0.400000	0.508517  	0.400000	0.000662574	
0.450000	0.644992  	0.450000	0.497091  	0.450000	0.439866  	0.450000	0.439866  	0.450000	0.496492  	0.450000	0.000599596	
0.500000	0.630492  	0.500000	0.485532  	0.500000	0.42749   	0.500000	0.42749   	0.500000	0.484984  	0.500000	0.000548204	
0.600000	0.578619  	0.600000	0.461064  	0.600000	0.405123  	0.600000	0.405123  	0.600000	0.460594  	0.600000	0.000469191	
0.700000	0.526685  	0.700000	0.435295  	0.700000	0.385351  	0.700000	0.385351  	0.700000	0.434884  	0.700000	0.000411117	
0.800000	0.503734  	0.800000	0.416712  	0.800000	0.36765   	0.800000	0.36765   	0.800000	0.416346  	0.800000	0.000366513	
0.900000	0.479283  	0.900000	0.397004  	0.900000	0.351642  	0.900000	0.351642  	0.900000	0.396673  	0.900000	0.00033111	
1.000000	0.455015  	1.000000	0.377378  	1.000000	0.336184  	1.000000	0.336184  	1.000000	0.377075  	1.000000	0.000302283	
1.250000	0.399355  	1.250000	0.333329  	1.250000	0.303771  	1.250000	0.303771  	1.250000	0.33308   	1.250000	0.000249084	
1.500000	0.346728  	1.500000	0.290205  	1.500000	0.277597  	1.500000	0.277597  	1.500000	0.289993  	1.500000	0.000212512	
1.750000	0.308159  	1.750000	0.259439  	1.750000	0.25564   	1.750000	0.25564   	1.750000	0.259254  	1.750000	0.000185734	
2.000000	0.278335  	2.000000	0.236074  	2.000000	0.236873  	2.000000	0.236873  	2.000000	0.235909  	2.000000	0.000165232	
2.250000	0.254789  	2.250000	0.217509  	2.250000	0.220581  	2.250000	0.220581  	2.250000	0.21736   	2.250000	0.000149001	
2.500000	0.227395  	2.500000	0.202251  	2.500000	0.206339  	2.500000	0.206339  	2.500000	0.202115  	2.500000	0.000135814	
3.000000	0.199804  	3.000000	0.178326  	3.000000	0.182737  	3.000000	0.182737  	3.000000	0.178211  	3.000000	0.00011565	
3.500000	0.178542  	3.500000	0.160147  	3.500000	0.164086  	3.500000	0.164086  	3.500000	0.160046  	3.500000	0.000100919	
4.000000	0.161627  	4.000000	0.145717  	4.000000	0.14905   	4.000000	0.14905   	4.000000	0.145628  	4.000000	8.96612e-05	
4.500000	0.147831  	4.500000	0.133931  	4.500000	0.136708  	4.500000	0.136708  	4.500000	0.13385   	4.500000	8.0763e-05	
5.000000	0.136352  	5.000000	0.124101  	5.000000	0.126412  	5.000000	0.126412  	5.000000	0.124027  	5.000000	7.35434e-05	
5.500000	0.126642  	5.500000	0.115766  	5.500000	0.117698  	5.500000	0.117698  	5.500000	0.115699  	5.500000	6.75622e-05	
6.000000	0.118315  	6.000000	0.108604  	6.000000	0.110227  	6.000000	0.110227  	6.000000	0.108541  	6.000000	6.25216e-05	
6.500000	0.111091  	6.500000	0.102377  	6.500000	0.10375   	6.500000	0.10375   	6.500000	0.102318  	6.500000	5.82129e-05	
7.000000	0.10476   	7.000000	0.0969087 	7.000000	0.098078  	7.000000	0.098078  	7.000000	0.0968542 	7.000000	5.44853e-05	
7.500000	0.0991647 	7.500000	0.0920657 	7.500000	0.0930663 	7.500000	0.0930663 	7.500000	0.0920145 	7.500000	5.12269e-05	
8.000000	0.0941808 	8.000000	0.0877431 	8.000000	0.0886032 	8.000000	0.0886032 	8.000000	0.0876947 	8.000000	4.83532e-05	
8.500000	0.0897119 	8.500000	0.0838586 	8.500000	0.0846007 	8.500000	0.0846007 	8.500000	0.0838128 	8.500000	4.57989e-05	
9.000000	0.0856807 	9.000000	0.0803468 	9.000000	0.0809887 	9.000000	0.0809887 	9.000000	0.0803033 	9.000000	4.35127e-05	
9.500000	0.0820249 	9.500000	0.0771545 	9.500000	0.0777106 	9.500000	0.0777106 	9.500000	0.0771131 	9.500000	4.1454e-05	
10.000000	0.0786935 	10.000000	0.0745728 	10.000000	0.0747205 	10.000000	0.0747205 	10.000000	0.0745332 	10.000000	3.95898e-05	
11.000000	0.0728424 	11.000000	0.0693694 	11.000000	0.0693371 	11.000000	0.0693497 	11.000000	0.0693331 	11.000000	3.6343e-05	
12.000000	0.0678673 	12.000000	0.0648913 	12.000000	0.0647402 	12.000000	0.0647608 	12.000000	0.0648577 	12.000000	3.36092e-05	
13.000000	0.063582  	13.000000	0.060996  	13.000000	0.0607624 	13.000000	0.0607877 	13.000000	0.0609648 	13.000000	3.12742e-05	
14.000000	0.0598503 	14.000000	0.0575759 	14.000000	0.0572816 	14.000000	0.0573089 	14.000000	0.0575466 	14.000000	2.92556e-05	
15.000000	0.0565698 	15.000000	0.0545482 	15.000000	0.0542063 	15.000000	0.0542336 	15.000000	0.0545207 	15.000000	2.74922e-05	
16.000000	0.0536619 	16.000000	0.0518484 	16.000000	0.0514657 	16.000000	0.0514924 	16.000000	0.0518224 	16.000000	2.59379e-05	
17.000000	0.0510655 	17.000000	0.0494253 	17.000000	0.0490055 	17.000000	0.0490316 	17.000000	0.0494008 	17.000000	2.45572e-05	
18.000000	0.0487324 	18.000000	0.047238  	18.000000	0.046784  	18.000000	0.0468084 	18.000000	0.0472147 	18.000000	2.3322e-05	
19.000000	0.0466237 	19.000000	0.0452532 	19.000000	0.0447664 	19.000000	0.0447888 	19.000000	0.045231  	19.000000	2.22102e-05	
20.000000	0.044708  	20.000000	0.0434437 	20.000000	0.0429234 	20.000000	0.0429449 	20.000000	0.0434225 	20.000000	2.1204e-05	
21.000000	0.0429595 	21.000000	0.041787  	21.000000	0.0412333 	21.000000	0.0412541 	21.000000	0.0417667 	21.000000	2.02887e-05	
22.000000	0.0413569 	22.000000	0.0402641 	22.000000	0.0396792 	22.000000	0.0396974 	22.000000	0.0402447 	22.000000	1.94525e-05	
23.000000	0.0398823 	23.000000	0.0388594 	23.000000	0.0382446 	23.000000	0.0382591 	23.000000	0.0388407 	23.000000	1.86853e-05	
24.000000	0.0385207 	24.000000	0.0375594 	24.000000	0.0369139 	24.000000	0.0369258 	24.000000	0.0375414 	24.000000	1.79788e-05	
25.000000	0.0372593 	25.000000	0.0363526 	25.000000	0.0356757 	25.000000	0.035686  	25.000000	0.0363352 	25.000000	1.73261e-05	
27.000000	0.0349954 	27.000000	0.0341807 	27.000000	0.0334428 	27.000000	0.0334499 	27.000000	0.0341646 	27.000000	1.61585e-05	
29.000000	0.0330203 	29.000000	0.0322802 	29.000000	0.0314847 	29.000000	0.0314878 	29.000000	0.032265  	29.000000	1.51443e-05	
31.000000	0.0312811 	31.000000	0.0306024 	31.000000	0.0298149 	31.000000	0.0298141 	31.000000	0.0305881 	31.000000	1.42547e-05	
33.000000	0.0297374 	33.000000	0.0291099 	33.000000	0.0283868 	33.000000	0.0283823 	33.000000	0.0290964 	33.000000	1.34679e-05	
35.000000	0.0283572 	35.000000	0.0277732 	35.000000	0.0271065 	35.000000	0.027099  	35.000000	0.0277604 	35.000000	1.27666e-05	
38.000000	0.0265401 	38.000000	0.0260102 	38.000000	0.0254158 	38.000000	0.0254045 	38.000000	0.0259983 	38.000000	1.18467e-05	
41.000000	0.0249704 	41.000000	0.0244846 	41.000000	0.0239507 	41.000000	0.0239362 	41.000000	0.0244735 	41.000000	1.10552e-05	
44.000000	0.0236    	44.000000	0.023151  	44.000000	0.0226678 	44.000000	0.0226509 	44.000000	0.0231406 	44.000000	1.03667e-05	
47.000000	0.0223924 	47.000000	0.0219748 	47.000000	0.0215352 	47.000000	0.0215157 	47.000000	0.021965  	47.000000	9.76206e-06	
50.000000	0.0213198 	50.000000	0.0209293 	50.000000	0.0205247 	50.000000	0.0205054 	50.000000	0.0209201 	50.000000	9.22665e-06	
55.000000	0.0197747 	55.000000	0.0194227 	55.000000	0.0190671 	55.000000	0.0190468 	55.000000	0.0194143 	55.000000	8.45832e-06	
60.000000	0.0184702 	60.000000	0.0181504 	60.000000	0.0178343 	60.000000	0.0178124 	60.000000	0.0181426 	60.000000	7.81242e-06	
65.000000	0.017353  	65.000000	0.017061  	65.000000	0.0167748 	65.000000	0.0167535 	65.000000	0.0170538 	65.000000	7.26153e-06	
70.000000	0.0163848 	70.000000	0.0161174 	70.000000	0.015858  	70.000000	0.0158347 	70.000000	0.0161106 	70.000000	6.78589e-06	
75.000000	0.0155371 	75.000000	0.0152918 	75.000000	0.0150516 	75.000000	0.0150294 	75.000000	0.0152855 	75.000000	6.3709e-06	
80.000000	0.0147883 	80.000000	0.0145632 	80.000000	0.0143408 	80.000000	0.0143177 	80.000000	0.0145572 	80.000000	6.00552e-06	
85.000000	0.0141216 	85.000000	0.0139153 	85.000000	0.0137058 	85.000000	0.0136838 	85.000000	0.0139096 	85.000000	5.68125e-06	
90.000000	0.013524  	90.000000	0.0133352 	90.000000	0.0131384 	90.000000	0.0131156 	90.000000	0.0133298 	90.000000	5.39144e-06	
95.000000	0.012985  	95.000000	0.0128127 	95.000000	0.0126249 	95.000000	0.0126031 	95.000000	0.0128075 	95.000000	5.13082e-06	
100.000000	0.0124962 	100.000000	0.0123395 	100.000000	0.0121611 	100.000000	0.0121386 	100.000000	0.0123346 	100.000000	4.89514e-06	
105.000000	0.0120508 	105.000000	0.011909  	105.000000	0.011737  	105.000000	0.0117155 	105.000000	0.0119043 	105.000000	4.68093e-06	
110.000000	0.011643  	110.000000	0.0115155 	110.000000	0.0113504 	110.000000	0.0113284 	110.000000	0.011511  	110.000000	4.48535e-06	
115.000000	0.0112683 	115.000000	0.0111544 	115.000000	0.0109945 	115.000000	0.010973  	115.000000	0.0111501 	115.000000	4.30605e-06	
120.000000	0.0109226 	120.000000	0.0108219 	120.000000	0.0106667 	120.000000	0.0106454 	120.000000	0.0108177 	120.000000	4.14105e-06	
125.000000	0.0106026 	125.000000	0.0105146 	125.000000	0.0103641 	125.000000	0.0103424 	125.000000	0.0105106 	125.000000	3.98869e-06	
130.000000	0.0103055 	130.000000	0.0102298 	130.000000	0.0100824 	130.000000	0.0100615 	130.000000	0.0102259 	130.000000	3.84754e-06	
135.000000	0.0100288 	135.000000	0.00996506	135.000000	0.00982021	135.000000	0.00980016	135.000000	0.00996134	135.000000	3.71641e-06	
140.000000	0.00977054	140.000000	0.00971834	140.000000	0.00957672	140.000000	0.0095565 	140.000000	0.00971474	140.000000	3.59424e-06	
145.000000	0.00952876	145.000000	0.00948784	145.000000	0.00934917	145.000000	0.00932876	145.000000	0.00948436	145.000000	3.48014e-06	
150.000000	0.00930195	150.000000	0.009272  	150.000000	0.00913517	150.000000	0.00911542	150.000000	0.00926862	150.000000	3.37332e-06	
155.000000	0.0089826 	155.000000	0.00906946	155.000000	0.00893502	155.000000	0.00891515	155.000000	0.00906618	155.000000	3.27311e-06	
160.000000	0.00879541	160.000000	0.00887902	160.000000	0.00874684	160.000000	0.00872678	160.000000	0.00887584	160.000000	3.17889e-06	
165.000000	0.00861889	165.000000	0.00869962	165.000000	0.00856877	165.000000	0.00854929	165.000000	0.00869653	165.000000	3.09014e-06	
170.000000	0.00845215	170.000000	0.00853034	170.000000	0.00840118	170.000000	0.00838175	170.000000	0.00852733	170.000000	3.00639e-06	
175.000000	0.00829437	175.000000	0.00837032	175.000000	0.00824309	175.000000	0.00822336	175.000000	0.00836739	175.000000	2.92723e-06	
180.000000	0.00814485	180.000000	0.00821883	180.000000	0.00809286	180.000000	0.00807338	180.000000	0.00821598	180.000000	2.85228e-06	
185.000000	0.00800294	185.000000	0.00807521	185.000000	0.00795006	185.000000	0.00793118	185.000000	0.00807243	185.000000	2.78122e-06	
190.000000	0.00786807	190.000000	0.00793886	190.000000	0.00781457	190.000000	0.00779615	190.000000	0.00793614	190.000000	2.71373e-06	
195.000000	0.00773972	195.000000	0.00780923	195.000000	0.00768619	195.000000	0.00766777	195.000000	0.00780658	195.000000	2.64957e-06	
200.000000	0.00761743	200.000000	0.00768585	200.000000	0.00756425	200.000000	0.00754557	200.000000	0.00768326	200.000000	2.58847e-06	
210.000000	0.00738937	210.000000	0.00745608	210.000000	0.00733614	210.000000	0.007318  	210.000000	0.00745361	210.000000	2.47466e-06	
220.000000	0.00718093	220.000000	0.00724651	220.000000	0.00712876	220.000000	0.00711043	220.000000	0.00724414	220.000000	2.37077e-06	
230.000000	0.00698966	230.000000	0.00705459	230.000000	0.00693838	230.000000	0.00692037	230.000000	0.00705231	230.000000	2.27555e-06	
240.000000	0.00681352	240.000000	0.00687818	240.000000	0.00676298	240.000000	0.00674571	240.000000	0.00687599	240.000000	2.18795e-06	
250.000000	0.00665076	250.000000	0.00671549	250.000000	0.00660204	250.000000	0.00658468	250.000000	0.00671339	250.000000	2.10707e-06	
260.000000	0.00649992	260.000000	0.006565  	260.000000	0.00645305	260.000000	0.00643576	260.000000	0.00656296	260.000000	2.03216e-06	
270.000000	0.00635973	270.000000	0.00642538	270.000000	0.00631457	270.000000	0.00629766	270.000000	0.00642342	270.000000	1.96258e-06	
280.000000	0.0062291 	280.000000	0.00629552	280.000000	0.00618643	280.000000	0.00616926	280.000000	0.00629362	280.000000	1.89777e-06	
290.000000	0.00610708	290.000000	0.00617444	290.000000	0.00606649	290.000000	0.0060496 	290.000000	0.0061726 	290.000000	1.83725e-06	
300.000000	0.00599285	300.000000	0.00606129	300.000000	0.00595419	300.000000	0.00593783	300.000000	0.00605951	300.000000	1.7806e-06	
310.000000	0.0058857 	310.000000	0.00595532	310.000000	0.00584938	310.000000	0.00583322	310.000000	0.00595359	310.000000	1.72746e-06	
320.000000	0.005785  	320.000000	0.00585589	320.000000	0.00575148	320.000000	0.00573513	320.000000	0.00585421	320.000000	1.67751e-06	
330.000000	0.00569017	330.000000	0.00576242	330.000000	0.00565923	330.000000	0.00564296	330.000000	0.00576079	330.000000	1.63047e-06	
340.000000	0.00560073	340.000000	0.0056744 	340.000000	0.00557209	340.000000	0.00555623	340.000000	0.00567282	340.000000	1.58608e-06	
350.000000	0.00551624	350.000000	0.00559138	350.000000	0.00548998	350.000000	0.00547448	350.000000	0.00558984	350.000000	1.54413e-06	
360.000000	0.00543631	360.000000	0.00551296	360.000000	0.0054128 	360.000000	0.00539731	360.000000	0.00551145	360.000000	1.50442e-06	
370.000000	0.00536058	370.000000	0.00543877	370.000000	0.00534001	370.000000	0.00532435	370.000000	0.0054373 	370.000000	1.46677e-06	
380.000000	0.00528874	380.000000	0.00536849	380.000000	0.00527079	380.000000	0.00525529	380.000000	0.00536706	380.000000	1.43103e-06	
390.000000	0.0052205 	390.000000	0.00530183	390.000000	0.00520507	390.000000	0.00518983	390.000000	0.00530043	390.000000	1.39704e-06	
400.000000	0.0051556 	400.000000	0.00523853	400.000000	0.005143  	400.000000	0.00512771	400.000000	0.00523716	400.000000	1.36469e-06	
410.000000	0.00509382	410.000000	0.00517834	410.000000	0.00508412	410.000000	0.0050687 	410.000000	0.00517701	410.000000	1.33385e-06	
420.000000	0.00503494	420.000000	0.00512106	420.000000	0.00502789	420.000000	0.00501258	420.000000	0.00511975	420.000000	1.30443e-06	
430.000000	0.00497877	430.000000	0.00506648	430.000000	0.00497418	430.000000	0.00495914	430.000000	0.0050652 	430.000000	1.27632e-06	
440.000000	0.00492513	440.000000	0.00501443	440.000000	0.00492299	440.000000	0.00490822	440.000000	0.00501318	440.000000	1.24943e-06	
450.000000	0.00487386	450.000000	0.00496474	450.000000	0.00487426	450.000000	0.00485964	450.000000	0.00496352	450.000000	1.2237e-06	
460.000000	0.00482482	460.000000	0.00491727	460.000000	0.0048279 	460.000000	0.00481327	460.000000	0.00491607	460.000000	1.19904e-06	
470.000000	0.00477787	470.000000	0.00487187	470.000000	0.0047837 	470.000000	0.00476895	470.000000	0.00487069	470.000000	1.17539e-06	
480.000000	0.00473288	480.000000	0.00482842	480.000000	0.00474134	480.000000	0.00472658	480.000000	0.00482727	480.000000	1.15268e-06	
490.000000	0.00468975	490.000000	0.00478681	490.000000	0.00470066	490.000000	0.00468602	490.000000	0.00478568	490.000000	1.13087e-06	
500.000000	0.00464836	500.000000	0.00474693	500.000000	0.0046616 	500.000000	0.00464717	500.000000	0.00474582	500.000000	1.1099e-06	
520.000000	0.00457044	520.000000	0.00467196	520.000000	0.00458829	520.000000	0.00457422	520.000000	0.00467089	520.000000	1.07027e-06	
540.000000	0.00449843	540.000000	0.00460281	540.000000	0.00452113	540.000000	0.00450703	540.000000	0.00460178	540.000000	1.03348e-06	
560.000000	0.00443172	560.000000	0.00453888	560.000000	0.00445915	560.000000	0.00444498	560.000000	0.00453788	560.000000	9.99206e-07	
580.000000	0.00436979	580.000000	0.00447963	580.000000	0.00440145	580.000000	0.00438756	580.000000	0.00447867	580.000000	9.6721e-07	
600.000000	0.00431219	600.000000	0.00442462	600.000000	0.00434816	600.000000	0.00433429	600.000000	0.00442369	600.000000	9.37267e-07	
620.000000	0.00425852	620.000000	0.00437345	620.000000	0.00429878	620.000000	0.00428479	620.000000	0.00437254	620.000000	9.09183e-07	
640.000000	0.00420844	640.000000	0.00432575	640.000000	0.00425257	640.000000	0.0042387 	640.000000	0.00432487	640.000000	8.82788e-07	
660.000000	0.00416162	660.000000	0.00428124	660.000000	0.00420932	660.000000	0.00419572	660.000000	0.00428038	660.000000	8.57932e-07	
680.000000	0.00411781	680.000000	0.00423962	680.000000	0.00416894	680.000000	0.00415556	680.000000	0.00423879	680.000000	8.34484e-07	
700.000000	0.00407675	700.000000	0.00420067	700.000000	0.00413131	700.000000	0.00411799	700.000000	0.00419986	700.000000	8.12325e-07	
