Energy (MeV/u)	0 - [He-base] F.Hubert et al, AD&ND Tables 46(1990)1	1 - [H -base] J.F.Ziegler et al, Pergamon Press, NY (low energy)	2 - ATIMA 1.2  LS-theory (recommended for high energy)	3 - ATIMA 1.2  without LS-correction	4 - Range straggling - method [0] - LISE	5 - Range straggling - method [1] - Atima	6 - Lateral range - method [0] - LISE	7 - Lateral range - method [1] - Atima	8 - Lateral range - method [2] - PDG
0.001000	0.0593346 	0.0593346 	0.0543274 	0.0543274 	-	-	0.000138632	0.000222509	0.000104425
93.633957	17867     	17687.6   	17973.4   	17992.2   	129.423   	62.8732   	41.4629   	35.8808   	41.2187   
187.266914	59762.5   	59157.3   	60003.2   	60163.4   	416.718   	195       	133.78    	112.832   	136.525   
280.899871	118379    	116985    	118703    	119111    	790.11    	368.618   	255.565   	214.81    	267.213   
374.532828	189148    	186886    	189738    	190482    	1210.35   	569.852   	394.806   	333.145   	422.06    
468.165785	269337    	265975    	270130    	271276    	1654.04   	790.362   	544.02    	462.21    	593.427   
561.798742	357019    	352244    	357783    	359386    	2106.99   	1024.93   	698.459   	598.234   	776.045   
655.431699	450703    	444180    	451127    	453228    	2560.38   	1270.06   	855.005   	738.557   	966.094   
749.064655	549224    	540629    	548975    	551610    	3008.85   	1523.35   	1011.63   	881.302   	1160.82   
842.697612	651645    	640689    	650411    	653609    	3449.13   	1783.1    	1167.01   	1025.12   	1358.21   
936.330569	757246    	743683    	754710    	758491    	3878.64   	2047.79   	1320.15   	1168.96   	1556.65   
1029.963526	865396    	849030    	861298    	865674    	4296.38   	2316.71   	1470.49   	1312.1    	1755.02   
1123.596483	975567    	956258    	969723    	974714    	4702.04   	2588.89   	1617.7    	1454.02   	1952.5    
1217.229440	1.08734e+06	1.065e+06 	1.07966e+06	1.08528e+06	5095.73   	2864.33   	1761.63   	1594.39   	2148.55   
1310.862397	1.20035e+06	1.17494e+06	1.19084e+06	1.19708e+06	5477.62   	3142.78   	1902.19   	1732.97   	2342.73   
1404.495354	1.31428e+06	1.2858e+06	1.303e+06 	1.30988e+06	5848.15   	3423.88   	2039.42   	1869.62   	2534.76   
1498.128311	1.42887e+06	1.39737e+06	1.41599e+06	1.4235e+06	6207.76   	3707.45   	2173.34   	2004.22   	2724.43   
1591.761268	1.54389e+06	1.50947e+06	1.52963e+06	1.53778e+06	6556.77   	3993.38   	2304.01   	2136.68   	2911.59   
1685.394225	1.65915e+06	1.62192e+06	1.6438e+06	1.6526e+06	6895.76   	4281.37   	2431.54   	2267      	3096.14   
1779.027182	1.77447e+06	1.7346e+06	1.7584e+06	1.76784e+06	7224.88   	4571.29   	2555.93   	2395.09   	3277.95   
1872.660139	1.88972e+06	1.84737e+06	1.87331e+06	1.88341e+06	7545.21   	4863.1    	2677.47   	2521.1    	3457.16   
1966.293096	2.00476e+06	1.96016e+06	1.98849e+06	1.99924e+06	7856.96   	5156.93   	2796.22   	2645      	3633.71   
2059.926052	2.11945e+06	2.07285e+06	2.10388e+06	2.11527e+06	8159.66   	5453.03   	2911.97   	2766.59   	3807.31   
2153.559009	2.23376e+06	2.18539e+06	2.21938e+06	2.23142e+06	8455.39   	5750.94   	3025.39   	2886.33   	3978.54   
2247.191966	2.3476e+06	2.29772e+06	2.33498e+06	2.34767e+06	8743.75   	6050.77   	3136.33   	3004.07   	4147.19   
2340.824923	2.46088e+06	2.40977e+06	2.45063e+06	2.46396e+06	9025.08   	6352.46   	3244.9    	3119.85   	4313.29   
2434.457880	2.57354e+06	2.52151e+06	2.5663e+06	2.58028e+06	9299.74   	6655.94   	3351.19   	3233.73   	4476.9    
2528.090837	2.68554e+06	2.63288e+06	2.68197e+06	2.69659e+06	9568.05   	6961.16   	3455.29   	3345.75   	4638.07   
2621.723794	2.79684e+06	2.74385e+06	2.7976e+06	2.81286e+06	9830.33   	7268.08   	3557.31   	3455.97   	4796.87   
2715.356751	2.90738e+06	2.85439e+06	2.91319e+06	2.92909e+06	10086.9   	7576.69   	3657.32   	3564.44   	4953.34   
2808.989708	3.01714e+06	2.96447e+06	3.02871e+06	3.04524e+06	10337.9   	7886.99   	3755.41   	3671.21   	5107.55   
2902.622665	3.12609e+06	3.07408e+06	3.14414e+06	3.1613e+06	10583.7   	8198.99   	3851.66   	3776.32   	5259.54   
2996.255622	3.23418e+06	3.18316e+06	3.25947e+06	3.27726e+06	10824.3   	8512.77   	3946.07   	3879.75   	5409.3    
3089.888579	3.34093e+06	3.29143e+06	3.37462e+06	3.39304e+06	11057.6   	8829.2    	4037.9    	3980.81   	5555.86   
3183.521536	3.44763e+06	3.39966e+06	3.48977e+06	3.50881e+06	11290.7   	9145.74   	4129.63   	4081.77   	5702.29   
3277.154493	3.55276e+06	3.50693e+06	3.60469e+06	3.62435e+06	11516     	9465.3    	4218.61   	4180.16   	5845.24   
3370.787449	3.65756e+06	3.61399e+06	3.71956e+06	3.73985e+06	11739.7   	9785.5    	4307.01   	4277.99   	5987.44   
3464.420406	3.76102e+06	3.72021e+06	3.83422e+06	3.85513e+06	11957.6   	10108.2   	4393.31   	4373.81   	6126.9    
3558.053363	3.86388e+06	3.82606e+06	3.94879e+06	3.97032e+06	12172.8   	10432     	4478.65   	4468.71   	6265.13   
3651.686320	3.96565e+06	3.93121e+06	4.06318e+06	4.08533e+06	12383.7   	10757.8   	4562.44   	4562.09   	6401.28   
3745.319277	4.06655e+06	4.03581e+06	4.17743e+06	4.20019e+06	12591.1   	11085.1   	4644.96   	4654.25   	6535.75   
3838.952234	4.16663e+06	4.13989e+06	4.29154e+06	4.31491e+06	12795.5   	11413.9   	4726.41   	4745.33   	6668.76   
3932.585191	4.26556e+06	4.24323e+06	4.40545e+06	4.42944e+06	12995.7   	11744.7   	4806.34   	4834.9    	6799.7    
4026.218148	4.36394e+06	4.34621e+06	4.51927e+06	4.54386e+06	13194.1   	12076.4   	4885.59   	4923.8    	6929.71   
4119.851105	4.46091e+06	4.44828e+06	4.63285e+06	4.65805e+06	13387.8   	12410.6   	4963.11   	5010.95   	7057.32   
4213.484062	4.55761e+06	4.55017e+06	4.74637e+06	4.77218e+06	13580.5   	12745.3   	5040.32   	5097.77   	7184.49   
4307.117019	4.65264e+06	4.65097e+06	4.85961e+06	4.88601e+06	13768.1   	13082.8   	5115.62   	5182.65   	7308.96   
4400.749976	4.74765e+06	4.75176e+06	4.97284e+06	4.99984e+06	13955.6   	13420.4   	5190.9    	5267.51   	7433.42   
4494.382933	4.84077e+06	4.8513e+06	5.08573e+06	5.11333e+06	14137.4   	13761.2   	5264.12   	5350.24   	7554.93   
4588.015890	4.93388e+06	4.95085e+06	5.19862e+06	5.22681e+06	14319.3   	14102     	5337.35   	5432.97   	7676.44   
4681.648846	5.02534e+06	5.04929e+06	5.31121e+06	5.33999e+06	14496.6   	14445.7   	5408.9    	5513.94   	7795.52   
4775.281803	5.11657e+06	5.14758e+06	5.42376e+06	5.45313e+06	14673.2   	14789.8   	5480.2    	5594.66   	7914.23   
4868.914760	5.20642e+06	5.24496e+06	5.53606e+06	5.56602e+06	14846.1   	15136.2   	5550.18   	5673.97   	8031      
4962.547717	5.29579e+06	5.34201e+06	5.64827e+06	5.67881e+06	15017.8   	15483.5   	5619.69   	5752.78   	8147.07   
5056.180674	5.38393e+06	5.43823e+06	5.76025e+06	5.79138e+06	15186.4   	15833     	5688.07   	5830.38   	8261.45   
5149.813631	5.47125e+06	5.5339e+06	5.87209e+06	5.90379e+06	15353     	16183.8   	5755.7    	5907.18   	8374.71   
5243.446588	5.55857e+06	5.62957e+06	5.98392e+06	6.01621e+06	15519.5   	16534.7   	5823.32   	5983.97   	8487.97   
5337.079545	5.64383e+06	5.72385e+06	6.09537e+06	6.12823e+06	15681.2   	16889.2   	5889.16   	6058.82   	8598.5    
5430.712502	5.72894e+06	5.81802e+06	6.2068e+06	6.24023e+06	15842.4   	17244     	5954.86   	6133.51   	8708.83   
5524.345459	5.81321e+06	5.91162e+06	6.31806e+06	6.35207e+06	16001.8   	17600.3   	6019.88   	6207.46   	8818.11   
5617.978416	5.89512e+06	6.00359e+06	6.42889e+06	6.46346e+06	16155.9   	17960.9   	6082.97   	6279.29   	8924.41   
5711.611373	5.97703e+06	6.09557e+06	6.53971e+06	6.57485e+06	16310     	18321.5   	6146.06   	6351.11   	9030.71   
5805.244330	6.05893e+06	6.18754e+06	6.65054e+06	6.68624e+06	16464.1   	18682.1   	6209.15   	6422.93   	9137      
5898.877287	6.14084e+06	6.27952e+06	6.76136e+06	6.79763e+06	16618.2   	19042.6   	6272.24   	6494.76   	9243.3    
5992.510243	6.22275e+06	6.3715e+06	6.87218e+06	6.90903e+06	16772.3   	19403.2   	6335.34   	6566.58   	9349.6    
6086.143200	6.30093e+06	6.46088e+06	6.9823e+06	7.0197e+06	16918.6   	19770.8   	6395.61   	6635.24   	9451.44   
6179.776157	6.37878e+06	6.55004e+06	7.09236e+06	7.13032e+06	17064.3   	20139     	6455.64   	6703.62   	9552.89   
6273.409114	6.45663e+06	6.6392e+06	7.20242e+06	7.24094e+06	17209.9   	20507.1   	6515.67   	6772      	9654.34   
6367.042071	6.53449e+06	6.72836e+06	7.31248e+06	7.35155e+06	17355.5   	20875.3   	6575.7    	6840.38   	9755.8    
6460.675028	6.61234e+06	6.81751e+06	7.42254e+06	7.46217e+06	17501.2   	21243.5   	6635.73   	6908.77   	9857.25   
6554.307985	6.68799e+06	6.90512e+06	7.53217e+06	7.57236e+06	17642.5   	21615.9   	6694.22   	6975.39   	9956.22   
6647.940942	6.76205e+06	6.99159e+06	7.64151e+06	7.68224e+06	17780.8   	21991.2   	6751.61   	7040.74   	10053.4   
6741.573899	6.8361e+06	7.07807e+06	7.75084e+06	7.79212e+06	17919     	22366.6   	6808.99   	7106.09   	10150.5   
6835.206856	6.91015e+06	7.16454e+06	7.86017e+06	7.902e+06 	18057.3   	22742     	6866.37   	7171.43   	10247.7   
6928.839813	6.98421e+06	7.25101e+06	7.96951e+06	8.01188e+06	18195.5   	23117.4   	6923.76   	7236.78   	10344.9   
7022.472770	7.05741e+06	7.33688e+06	8.07867e+06	8.1216e+06	18332.2   	23494.4   	6980.59   	7301.48   	10441.1   
7116.105727	7.12791e+06	7.4208e+06	8.18732e+06	8.23078e+06	18464     	23876.9   	7035.66   	7364.14   	10534.5   
7209.738684	7.19841e+06	7.50472e+06	8.29597e+06	8.33997e+06	18595.8   	24259.3   	7090.74   	7426.8    	10627.8   
7303.371640	7.2689e+06	7.58865e+06	8.40461e+06	8.44916e+06	18727.5   	24641.8   	7145.82   	7489.45   	10721.1   
7397.004597	7.3394e+06	7.67257e+06	8.51326e+06	8.55835e+06	18859.3   	25024.3   	7200.9    	7552.11   	10814.5   
7490.637554	7.4099e+06	7.7565e+06	8.6219e+06	8.66753e+06	18991     	25406.7   	7255.98   	7614.77   	10907.8   
7584.270511	7.47741e+06	7.83824e+06	8.72997e+06	8.77613e+06	19117.6   	25795.5   	7309.24   	7675.26   	10998.1   
7677.903468	7.54458e+06	7.91974e+06	8.83796e+06	8.88466e+06	19243.6   	26185.1   	7362.3    	7735.52   	11088     
7771.536425	7.61175e+06	8.00124e+06	8.94596e+06	8.99319e+06	19369.6   	26574.6   	7415.36   	7795.77   	11177.9   
7865.169382	7.67893e+06	8.08274e+06	9.05396e+06	9.10173e+06	19495.6   	26964.1   	7468.41   	7856.03   	11267.9   
7958.802339	7.7461e+06	8.16425e+06	9.16196e+06	9.21026e+06	19621.6   	27353.6   	7521.47   	7916.28   	11357.8   
8052.435296	7.81153e+06	8.24446e+06	9.26961e+06	9.31844e+06	19744.7   	27746.9   	7573.53   	7975.33   	11446     
8146.068253	7.8756e+06	8.32366e+06	9.377e+06 	9.42635e+06	19865.6   	28143.3   	7624.81   	8033.44   	11532.8   
8239.701210	7.93966e+06	8.40287e+06	9.48438e+06	9.53426e+06	19986.4   	28539.7   	7676.09   	8091.54   	11619.7   
8333.334167	8.00373e+06	8.48207e+06	9.59176e+06	9.64218e+06	20107.3   	28936.1   	7727.36   	8149.64   	11706.5   
8426.967124	8.0678e+06	8.56127e+06	9.69915e+06	9.75009e+06	20228.1   	29332.5   	7778.64   	8207.75   	11793.4   
8520.600081	8.13122e+06	8.64e+06  	9.80641e+06	9.85787e+06	20347.9   	29730.3   	7829.57   	8265.43   	11879.6   
8614.233037	8.19238e+06	8.71702e+06	9.91321e+06	9.9652e+06	20464.2   	30133.5   	7879.27   	8321.59   	11963.7   
8707.865994	8.25354e+06	8.79404e+06	1.002e+07 	1.00725e+07	20580.4   	30536.6   	7928.97   	8377.76   	12047.8   
8801.498951	8.3147e+06	8.87107e+06	1.01268e+07	1.01798e+07	20696.6   	30939.7   	7978.67   	8433.93   	12131.8   
8895.131908	8.37586e+06	8.94809e+06	1.02336e+07	1.02872e+07	20812.8   	31342.9   	8028.37   	8490.1    	12215.9   
8988.764865	8.43702e+06	9.02511e+06	1.03404e+07	1.03945e+07	20929     	31746     	8078.06   	8546.27   	12300     
9082.397822	8.49579e+06	9.10031e+06	1.04468e+07	1.05013e+07	21041.6   	32154.9   	8126.53   	8600.9    	12381.8   
9176.030779	8.55423e+06	9.17526e+06	1.0553e+07	1.06081e+07	21153.6   	32564.7   	8174.82   	8655.32   	12463.4   
9269.663736	8.61267e+06	9.25022e+06	1.06593e+07	1.07149e+07	21265.6   	32974.4   	8223.12   	8709.74   	12545     
9363.296693	8.67112e+06	9.32517e+06	1.07655e+07	1.08217e+07	21377.6   	33384.1   	8271.41   	8764.16   	12626.5   
9456.929650	8.72956e+06	9.40012e+06	1.08718e+07	1.09284e+07	21489.7   	33793.8   	8319.7    	8818.58   	12708.1   
9550.562607	8.78663e+06	9.47401e+06	1.09778e+07	1.10349e+07	21599.6   	34206.9   	8367.32   	8872.14   	12788.4   
9644.195564	8.84252e+06	9.547e+06 	1.10835e+07	1.11412e+07	21707.8   	34622.9   	8414.36   	8924.98   	12867.7   
9737.828521	8.89842e+06	9.61998e+06	1.11893e+07	1.12474e+07	21816     	35038.9   	8461.39   	8977.81   	12947     
9831.461478	8.95432e+06	9.69297e+06	1.1295e+07	1.13536e+07	21924.2   	35454.8   	8508.43   	9030.64   	13026.2   
9925.094434	9.01021e+06	9.76595e+06	1.14007e+07	1.14599e+07	22032.5   	35870.8   	8555.47   	9083.48   	13105.5   
10018.727391	9.06541e+06	9.83839e+06	1.15063e+07	1.1566e+07	22139.6   	36288.6   	8602.18   	9135.89   	13184.2   
10112.360348	9.1178e+06	9.90862e+06	1.16113e+07	1.16715e+07	22242.8   	36713.7   	8647.57   	9186.62   	13260.4   
10205.993305	9.1702e+06	9.97884e+06	1.17163e+07	1.1777e+07	22345.9   	37138.8   	8692.97   	9237.36   	13336.7   
10299.626262	9.22259e+06	1.00491e+07	1.18214e+07	1.18825e+07	22449     	37563.8   	8738.37   	9288.09   	13412.9   
10393.259219	9.27498e+06	1.01193e+07	1.19264e+07	1.1988e+07	22552.1   	37988.9   	8783.77   	9338.82   	13489.1   
10486.892176	9.32738e+06	1.01895e+07	1.20314e+07	1.20935e+07	22655.2   	38414     	8829.16   	9389.55   	13565.4   
10580.525133	9.37977e+06	1.02598e+07	1.21364e+07	1.2199e+07	22758.3   	38839     	8874.56   	9440.28   	13641.6   
10674.158090	9.43217e+06	1.033e+07 	1.22414e+07	1.23045e+07	22861.4   	39264.1   	8919.96   	9491.01   	13717.8   
10767.791047	9.48456e+06	1.04002e+07	1.23464e+07	1.24101e+07	22964.6   	39689.1   	8965.36   	9541.74   	13794.1   
10861.424004	9.53695e+06	1.04704e+07	1.24514e+07	1.25156e+07	23067.7   	40114.2   	9010.76   	9592.47   	13870.3   
10955.056961	9.58935e+06	1.05407e+07	1.25564e+07	1.26211e+07	23170.8   	40539.3   	9056.15   	9643.21   	13946.5   
11048.689918	9.63955e+06	1.06091e+07	1.2661e+07	1.27261e+07	23270.8   	40970.6   	9100.59   	9692.68   	14021     
11142.322875	9.68774e+06	1.0676e+07	1.27651e+07	1.28307e+07	23368     	41407.6   	9144.14   	9740.99   	14093.7   
11235.955831	9.73593e+06	1.07428e+07	1.28692e+07	1.29353e+07	23465.2   	41844.7   	9187.69   	9789.3    	14166.4   
11329.588788	9.78412e+06	1.08097e+07	1.29733e+07	1.30399e+07	23562.4   	42281.7   	9231.23   	9837.61   	14239.1   
11423.221745	9.83231e+06	1.08765e+07	1.30774e+07	1.31445e+07	23659.6   	42718.7   	9274.78   	9885.92   	14311.9   
11516.854702	9.88049e+06	1.09433e+07	1.31815e+07	1.32491e+07	23756.8   	43155.8   	9318.33   	9934.23   	14384.6   
11610.487659	9.92868e+06	1.10102e+07	1.32857e+07	1.33537e+07	23853.9   	43592.8   	9361.88   	9982.55   	14457.3   
11704.120616	9.97687e+06	1.1077e+07	1.33898e+07	1.34583e+07	23951.1   	44029.9   	9405.43   	10030.9   	14530     
11797.753573	1.00251e+07	1.11439e+07	1.34939e+07	1.35629e+07	24048.3   	44466.9   	9448.97   	10079.2   	14602.8   
11891.386530	1.00732e+07	1.12107e+07	1.3598e+07	1.36676e+07	24145.5   	44904     	9492.52   	10127.5   	14675.5   
11985.019487	1.01214e+07	1.12775e+07	1.37021e+07	1.37722e+07	24242.7   	45341     	9536.07   	10175.8   	14748.2   
12078.652444	1.01665e+07	1.13418e+07	1.38056e+07	1.38761e+07	24335.6   	45787.8   	9578.33   	10222.4   	14818.5   
12172.285401	1.0211e+07	1.14056e+07	1.39089e+07	1.39799e+07	24427.7   	46236.5   	9620.35   	10268.7   	14888.2   
12265.918358	1.02554e+07	1.14693e+07	1.40122e+07	1.40836e+07	24519.8   	46685.2   	9662.37   	10314.9   	14958     
12359.551315	1.02999e+07	1.15331e+07	1.41155e+07	1.41874e+07	24611.9   	47133.9   	9704.39   	10361.2   	15027.7   
12453.184272	1.03444e+07	1.15968e+07	1.42188e+07	1.42912e+07	24704     	47582.6   	9746.41   	10407.5   	15097.5   
12546.817228	1.03888e+07	1.16606e+07	1.43221e+07	1.4395e+07	24796.1   	48031.3   	9788.43   	10453.7   	15167.2   
12640.450185	1.04333e+07	1.17244e+07	1.44254e+07	1.44988e+07	24888.2   	48480     	9830.45   	10500     	15237     
12734.083142	1.04778e+07	1.17881e+07	1.45287e+07	1.46025e+07	24980.3   	48928.7   	9872.47   	10546.3   	15306.7   
12827.716099	1.05222e+07	1.18519e+07	1.4632e+07	1.47063e+07	25072.5   	49377.4   	9914.49   	10592.5   	15376.5   
12921.349056	1.05667e+07	1.19157e+07	1.47353e+07	1.48101e+07	25164.6   	49826.1   	9956.51   	10638.8   	15446.2   
13014.982013	1.06106e+07	1.1979e+07	1.48385e+07	1.49138e+07	25256     	50276.5   	9998.32   	10684.8   	15515.6   
13108.614970	1.06518e+07	1.20399e+07	1.4941e+07	1.50168e+07	25343.6   	50736.2   	10039.1   	10729.3   	15582.8   
13202.247927	1.0693e+07	1.21009e+07	1.50436e+07	1.51198e+07	25431.3   	51195.8   	10079.8   	10773.8   	15650     
13295.880884	1.07341e+07	1.21618e+07	1.51462e+07	1.52229e+07	25519     	51655.5   	10120.5   	10818.3   	15717.2   
13389.513841	1.07753e+07	1.22228e+07	1.52487e+07	1.53259e+07	25606.7   	52115.1   	10161.3   	10862.9   	15784.4   
13483.146798	1.08165e+07	1.22838e+07	1.53513e+07	1.54289e+07	25694.4   	52574.8   	10202     	10907.4   	15851.6   
13576.779755	1.08576e+07	1.23447e+07	1.54538e+07	1.55319e+07	25782.1   	53034.4   	10242.8   	10951.9   	15918.8   
13670.412712	1.08988e+07	1.24057e+07	1.55564e+07	1.5635e+07	25869.8   	53494.1   	10283.5   	10996.4   	15986     
13764.045669	1.09399e+07	1.24666e+07	1.5659e+07	1.5738e+07	25957.5   	53953.7   	10324.2   	11041     	16053.2   
13857.678625	1.09811e+07	1.25276e+07	1.57615e+07	1.5841e+07	26045.1   	54413.4   	10365     	11085.5   	16120.4   
13951.311582	1.10223e+07	1.25885e+07	1.58641e+07	1.59441e+07	26132.8   	54873     	10405.7   	11130     	16187.6   
14044.944539	1.1062e+07	1.26483e+07	1.59663e+07	1.60468e+07	26218.6   	55337.6   	10445.9   	11173.8   	16253.7   
14138.577496	1.11002e+07	1.27066e+07	1.60682e+07	1.61491e+07	26302.5   	55807.5   	10485.6   	11216.8   	16318.8   
14232.210453	1.11385e+07	1.2765e+07	1.61701e+07	1.62514e+07	26386.3   	56277.5   	10525.3   	11259.9   	16383.8   
14325.843410	1.11767e+07	1.28234e+07	1.6272e+07	1.63538e+07	26470.1   	56747.4   	10564.9   	11302.9   	16448.8   
14419.476367	1.12149e+07	1.28818e+07	1.63738e+07	1.64561e+07	26553.9   	57217.3   	10604.6   	11345.9   	16513.8   
14513.109324	1.12531e+07	1.29402e+07	1.64757e+07	1.65584e+07	26637.7   	57687.2   	10644.2   	11388.9   	16578.8   
14606.742281	1.12913e+07	1.29986e+07	1.65776e+07	1.66608e+07	26721.5   	58157.1   	10683.9   	11431.9   	16643.8   
14700.375238	1.13295e+07	1.3057e+07	1.66795e+07	1.67631e+07	26805.3   	58627.1   	10723.5   	11475     	16708.8   
14794.008195	1.13677e+07	1.31154e+07	1.67814e+07	1.68654e+07	26889.1   	59097     	10763.2   	11518     	16773.8   
14887.641152	1.1406e+07	1.31738e+07	1.68833e+07	1.69678e+07	26972.9   	59566.9   	10802.9   	11561     	16838.8   
14981.274109	1.14442e+07	1.32321e+07	1.69851e+07	1.70701e+07	27056.7   	60036.8   	10842.5   	11604     	16903.8   
15074.907066	1.14803e+07	1.32886e+07	1.70865e+07	1.71719e+07	27137.8   	60514.6   	10881.4   	11646     	16967.3   
15168.540022	1.15158e+07	1.33447e+07	1.71878e+07	1.72736e+07	27218.1   	60994.4   	10920.2   	11687.7   	17030.4   
15262.172979	1.15514e+07	1.34007e+07	1.7289e+07	1.73753e+07	27298.5   	61474.2   	10958.9   	11729.5   	17093.5   
15355.805936	1.1587e+07	1.34567e+07	1.73903e+07	1.7477e+07	27378.9   	61954     	10997.6   	11771.2   	17156.6   
15449.438893	1.16226e+07	1.35128e+07	1.74915e+07	1.75787e+07	27459.2   	62433.8   	11036.3   	11812.9   	17219.7   
15543.071850	1.16581e+07	1.35688e+07	1.75928e+07	1.76804e+07	27539.6   	62913.6   	11075.1   	11854.6   	17282.8   
15636.704807	1.16937e+07	1.36248e+07	1.7694e+07	1.77821e+07	27620     	63393.3   	11113.8   	11896.3   	17345.9   
15730.337764	1.17293e+07	1.36808e+07	1.77953e+07	1.78838e+07	27700.3   	63873.1   	11152.5   	11938.1   	17409     
